Data from lamp5bck_Subt4__90__345.txt Node

Date: Wed Apr 09 10:15:54 CEST 2025
User: fys-lab-0081
Spectrometer: S04999
Trigger mode: 0
Resolution mode: 1024 pixels
Integration Time (sec): 1.000000E-1
Scans to average: 1
Nonlinearity correction enabled: false
Boxcar width: 0
Baseline correction enabled: true
XAxis mode: Wavelengths
Number of Pixels in Spectrum: 1024
>>>>>Begin Spectral Data<<<<<
336.42	0
336.877	0
337.334	-1
337.792	-2
338.249	3
338.706	3
339.164	-2
339.621	-2
340.079	0
340.536	4
340.994	10
341.452	-3
341.909	0
342.367	-1
342.825	-1
343.283	2
343.741	-4
344.198	-3
344.656	-1
345.114	2
345.572	3
346.03	6
346.488	1
346.947	-2
347.405	2
347.863	0
348.321	4
348.779	1
349.238	1
349.696	5
350.154	-1
350.613	0
351.071	1
351.53	1
351.988	4
352.447	-4
352.905	0
353.364	0
353.823	-1
354.282	1
354.74	-3
355.199	1
355.658	7
356.117	2
356.576	5
357.035	1
357.494	2
357.953	8
358.412	3
358.871	-4
359.33	3
359.789	2
360.249	-2
360.708	3
361.167	1
361.626	3
362.086	5
362.545	1
363.005	6
363.464	-2
363.924	-3
364.383	7
364.843	-1
365.303	3
365.762	-1
366.222	-4
366.682	5
367.142	4
367.601	4
368.061	2
368.521	7
368.981	3
369.441	7
369.901	7
370.361	-1
370.821	4
371.282	5
371.742	8
372.202	5
372.662	9
373.123	5
373.583	2
374.043	9
374.504	-4
374.964	0
375.425	3
375.885	4
376.346	9
376.806	4
377.267	6
377.728	9
378.188	4
378.649	9
379.11	6
379.571	1
380.032	4
380.493	6
380.954	9
381.414	2
381.876	6
382.337	9
382.798	10
383.259	14
383.72	1
384.181	9
384.642	8
385.104	12
385.565	20
386.026	8
386.488	9
386.949	9
387.411	12
387.872	8
388.334	11
388.795	8
389.257	13
389.719	10
390.181	8
390.642	14
391.104	9
391.566	10
392.028	21
392.49	11
392.952	11
393.414	14
393.876	13
394.338	13
394.8	11
395.262	13
395.724	17
396.186	17
396.648	17
397.111	19
397.573	14
398.035	19
398.498	17
398.96	16
399.423	14
399.885	19
400.348	19
400.81	25
401.273	15
401.736	18
402.198	19
402.661	17
403.124	20
403.587	17
404.049	22.5
404.512	28
404.975	22
405.438	18
405.901	23
406.364	23
406.827	23
407.29	26
407.754	27
408.217	25
408.68	21
409.143	24
409.607	30
410.07	26
410.533	24
410.997	25
411.46	22
411.924	28
412.387	26
412.851	25
413.314	25
413.778	26
414.242	28
414.705	31
415.169	31
415.633	30
416.097	33
416.561	35
417.024	34
417.488	38
417.952	35
418.416	38
418.88	34
419.344	32
419.809	32
420.273	36
420.737	30
421.201	30
421.665	35
422.13	32
422.594	38
423.059	40
423.523	38
423.987	40
424.452	38
424.916	43
425.381	41
425.846	39
426.31	40
426.775	42
427.24	48
427.704	40
428.169	48
428.634	46
429.099	43
429.564	45
430.029	50
430.494	47
430.959	42
431.424	47
431.889	44
432.354	47
432.819	47
433.284	45
433.75	46
434.215	55
434.68	57
435.146	54
435.611	58
436.077	57
436.542	62
437.008	63
437.473	66
437.939	63
438.404	69
438.87	69
439.336	64
439.801	65
440.267	62
440.733	68
441.199	73
441.665	67
442.131	73
442.596	71
443.062	70
443.529	75
443.995	77
444.461	74
444.927	85
445.393	79
445.859	86
446.325	86
446.792	97
447.258	95
447.724	96
448.191	96
448.657	98
449.124	101
449.59	105
450.057	116
450.523	108
450.99	109
451.457	113
451.923	115
452.39	109
452.857	111
453.324	114
453.791	121
454.257	118
454.724	120
455.191	120
455.658	114
456.125	126
456.592	129
457.059	124
457.527	126
457.994	128
458.461	131
458.928	141
459.396	136
459.863	136
460.33	142
460.798	139
461.265	139
461.732	146
462.2	143
462.668	141
463.135	150
463.603	144
464.07	146
464.538	147
465.006	153
465.474	147
465.941	149
466.409	149
466.877	145
467.345	154
467.813	151
468.281	152
468.749	152
469.217	150
469.685	152
470.153	157
470.621	161
471.09	157
471.558	161
472.026	166
472.494	171
472.963	176
473.431	179
473.9	189
474.368	193
474.837	192
475.305	196
475.774	204
476.242	209
476.711	206
477.18	214
477.648	213
478.117	215
478.586	216
479.055	209
479.524	216
479.993	218
480.462	215
480.93	213
481.399	219
481.869	216
482.338	217
482.807	217
483.276	218
483.745	223
484.214	227
484.684	232
485.153	228
485.622	225
486.092	238
486.561	240
487.031	237
487.5	242
487.97	259
488.439	265
488.909	266
489.378	274
489.848	273
490.318	288
490.787	292
491.257	296
491.727	301
492.197	307
492.667	305
493.137	308
493.607	310
494.077	316
494.547	313
495.017	318
495.487	320
495.957	326
496.427	318
496.897	325
497.368	325
497.838	326
498.308	327
498.779	335
499.249	342
499.719	340
500.19	347
500.66	349
501.131	349
501.602	349
502.072	354
502.543	360
503.014	372
503.484	372
503.955	386
504.426	408
504.897	411
505.368	418
505.838	419
506.309	435
506.78	447
507.251	459
507.722	463
508.194	478
508.665	480
509.136	476
509.607	495
510.078	509
510.549	507
511.021	523
511.492	518
511.964	528
512.435	540
512.906	532
513.378	545
513.849	547
514.321	562
514.793	562
515.264	569
515.736	573
516.208	587
516.679	585
517.151	596
517.623	597
518.095	613
518.567	618
519.038	625
519.51	624
519.982	640
520.454	647
520.927	656
521.399	665
521.871	680
522.343	676
522.815	682
523.287	678
523.76	693
524.232	704
524.704	710
525.177	699
525.649	701
526.122	714
526.594	705
527.067	726
527.539	730
528.012	724
528.484	722
528.957	723
529.43	718
529.903	716
530.375	745
530.848	734
531.321	745
531.794	742
532.267	759
532.74	749
533.213	747
533.686	767
534.159	765
534.632	784
535.105	787
535.578	796
536.051	803
536.525	809
536.998	813
537.471	824
537.945	821
538.418	843
538.891	842
539.365	846
539.838	853
540.312	852
540.786	868
541.259	856
541.733	866
542.206	867
542.68	860
543.154	860
543.628	861
544.101	896
544.575	881
545.049	861
545.523	872
545.997	880
546.471	887
546.945	878
547.419	900
547.893	863
548.367	880
548.842	870
549.316	872
549.79	885
550.264	878
550.739	896
551.213	887
551.687	892
552.162	901
552.636	900
553.111	892
553.585	926
554.06	906
554.534	929
555.009	922
555.484	945
555.958	958
556.433	967
556.908	975
557.383	961
557.858	990
558.333	994
558.807	992
559.282	997
559.757	1022
560.232	1027
560.708	1009
561.183	1005
561.658	1024
562.133	1018
562.608	1011
563.083	1038
563.559	1006
564.034	1025
564.509	1022
564.985	1026
565.46	1021
565.936	1045
566.411	1051
566.887	1044
567.362	1047
567.838	1047
568.313	1064
568.789	1041
569.265	1042
569.74	1052
570.216	1048
570.692	1068
571.168	1066
571.644	1061
572.12	1066
572.596	1080
573.071	1078
573.547	1100
574.024	1119
574.5	1129
574.976	1141
575.452	1159
575.928	1165
576.404	1172
576.881	1207
577.357	1190
577.833	1203
578.31	1234
578.786	1252
579.262	1276
579.739	1261
580.215	1292
580.692	1288
581.169	1286
581.645	1284
582.122	1322
582.598	1317
583.075	1317
583.552	1336
584.029	1336
584.506	1332
584.982	1323
585.459	1344
585.936	1337
586.413	1350
586.89	1366
587.367	1351
587.844	1376
588.321	1369
588.799	1368
589.276	1357
589.753	1381
590.23	1397
590.707	1394
591.185	1393
591.662	1395
592.139	1417
592.617	1451
593.094	1442
593.572	1446
594.049	1461
594.527	1487
595.004	1496
595.482	1533
595.96	1509
596.437	1508
596.915	1554
597.393	1538
597.871	1572
598.349	1552
598.826	1584
599.304	1582
599.782	1616
600.26	1598
600.738	1635
601.216	1623
601.694	1638
602.173	1660
602.651	1661
603.129	1647
603.607	1660
604.085	1677
604.564	1686
605.042	1684
605.52	1677
605.999	1722
606.477	1688
606.956	1688
607.434	1704.5
607.913	1721
608.391	1733
608.87	1729
609.348	1699
609.827	1716
610.306	1726
610.785	1733
611.263	1745
611.742	1718
612.221	1692
612.7	1717
613.179	1729
613.658	1705
614.137	1738
614.616	1738
615.095	1701
615.574	1734
616.053	1757
616.532	1736
617.011	1751
617.491	1757
617.97	1767
618.449	1798
618.928	1812
619.408	1797
619.887	1816
620.367	1819
620.846	1851
621.326	1845
621.805	1878
622.285	1884
622.764	1908
623.244	1910
623.724	1921
624.203	1940
624.683	1906
625.163	1936
625.643	1939
626.123	1921
626.602	1960
627.082	1926
627.562	1929
628.042	1981
628.522	1951
629.002	1939
629.482	1950
629.963	1944
630.443	1938
630.923	1947
631.403	1947
631.883	1942
632.364	1959
632.844	1946
633.324	1955
633.805	1952
634.285	1942
634.766	1931
635.246	1936
635.727	1948
636.207	1968
636.688	1973
637.168	1959
637.649	1932
638.13	1929
638.611	1954
639.091	1954
639.572	1938
640.053	1934
640.534	1962
641.015	1959
641.496	1937
641.977	1975
642.458	1947
642.939	1949
643.42	1958
643.901	1962
644.382	1974
644.863	1971
645.345	1971
645.826	1973
646.307	1968
646.788	2013
647.27	1990
647.751	1993
648.233	2008
648.714	1967
649.196	2016
649.677	2020
650.159	2023
650.64	1997
651.122	2034
651.603	2012
652.085	2045
652.567	2042
653.049	2014
653.53	2007
654.012	2046
654.494	2015
654.976	2039
655.458	2042
655.94	2044
656.422	2077
656.904	2055
657.386	2027
657.868	2025
658.35	2024
658.833	2030
659.315	2046
659.797	2027
660.279	2021
660.762	2034
661.244	2007
661.726	1979
662.209	1991
662.691	1981
663.174	1945
663.656	1959
664.139	1966
664.621	1938
665.104	1936
665.587	1960
666.069	1976
666.552	1970
667.035	1950
667.517	1956
668	1973
668.483	1977
668.966	1960
669.449	1950
669.932	1958
670.415	1982
670.898	1967
671.381	1970
671.864	1992
672.347	1980
672.83	1977
673.313	1984
673.797	1973
674.28	2015
674.763	2032
675.247	2042
675.73	2039
676.213	2048
676.697	2059
677.18	2052
677.664	2062
678.147	2056
678.631	2065
679.114	2077
679.598	2084
680.082	2103
680.565	2111
681.049	2102
681.533	2108
682.017	2124
682.5	2101
682.984	2110
683.468	2106
683.952	2067
684.436	2124
684.92	2102
685.404	2111
685.888	2130
686.372	2124
686.856	2133
687.341	2146
687.825	2117
688.309	2122
688.793	2122
689.278	2095
689.762	2112
690.246	2099
690.731	2108
691.215	2131
691.7	2082
692.184	2101
692.669	2095
693.153	2105
693.638	2074
694.122	2078
694.607	2103
695.092	2081
695.577	2115
696.061	2068
696.546	2068
697.031	2066
697.516	2076
698.001	2089
698.486	2070
698.971	2105
699.456	2054
699.941	2057
700.426	2050
700.911	2074
701.396	2072
701.881	2090
702.366	2078
702.852	2066
703.337	2083
703.822	2072
704.308	2059
704.793	2077
705.278	2091
705.764	2102
706.249	2088
706.735	2077
707.22	2093
707.706	2061
708.191	2089
708.677	2100
709.163	2085
709.648	2107
710.134	2137
710.62	2108
711.106	2114
711.592	2151
712.077	2154
712.563	2103
713.049	2092
713.535	2134
714.021	2123
714.507	2116
714.993	2088
715.479	2106
715.966	2083
716.452	2086
716.938	2084
717.424	2034
717.91	2084
718.397	2084
718.883	2070
719.369	2064
719.856	2042
720.342	2063
720.829	2050
721.315	2064
721.802	2048
722.288	2055
722.775	1970
723.262	1924
723.748	2002
724.235	2007
724.722	2039
725.208	1993
725.695	1992
726.182	1984
726.669	1951
727.156	1960
727.643	1938
728.13	1938
728.617	1917
729.104	1923
729.591	1897
730.078	1915
730.565	1924
731.052	1891
731.539	1897
732.027	1884
732.514	1869
733.001	1901
733.488	1890
733.976	1886
734.463	1876
734.951	1880
735.438	1895
735.926	1892
736.413	1920
736.901	1902
737.388	1932
737.876	1930
738.364	1915
738.851	1927
739.339	1917
739.827	1928
740.314	1868
740.802	1892
741.29	1900
741.778	1878
742.266	1881
742.754	1891
743.242	1896
743.73	1858
744.218	1857
744.706	1833
745.194	1848
745.682	1832
746.17	1836
746.659	1852
747.147	1807
747.635	1810
748.123	1808
748.612	1786
749.1	1773
749.589	1795
750.077	1781
750.566	1764
751.054	1768
751.543	1778
752.031	1746
752.52	1740
753.008	1709
753.497	1726
753.986	1712
754.474	1708
754.963	1725
755.452	1701
755.941	1699
756.43	1696
756.919	1703
757.408	1681
757.896	1676
758.385	1675
758.875	1665
759.364	1650
759.853	1648
760.342	1623
760.831	1660
761.32	1647
761.809	1619
762.299	1633
762.788	1631
763.277	1628
763.767	1607
764.256	1604
764.745	1581
765.235	1613
765.724	1566
766.214	1589
766.703	1577
767.193	1565
767.683	1575
768.172	1541
768.662	1557
769.152	1544
769.641	1545
770.131	1515
770.621	1524
771.111	1503
771.601	1498
772.09	1491
772.58	1479
773.07	1483
773.56	1491
774.05	1468
774.54	1467
775.031	1449
775.521	1443
776.011	1432
776.501	1444
776.991	1421
777.482	1424
777.972	1391
778.462	1389
778.953	1407
779.443	1393
779.933	1380
780.424	1363
780.914	1373
781.405	1387
781.895	1377
782.386	1376
782.877	1363
783.367	1334
783.858	1331
784.349	1334
784.839	1323
785.33	1328
785.821	1325
786.312	1314
786.803	1322
787.293	1328
787.784	1313
788.275	1292
788.766	1281
789.257	1305
789.748	1272
790.24	1264
790.731	1284
791.222	1265
791.713	1257
792.204	1263
792.696	1228
793.187	1237
793.678	1222
794.169	1190
794.661	1198
795.152	1191
795.644	1185
796.135	1185
796.627	1193
797.118	1175
797.61	1160
798.101	1145
798.593	1154
799.085	1138
799.576	1145
800.068	1125
800.56	1118
801.052	1092
801.544	1095
802.035	1105
802.527	1087
803.019	1077
803.511	1068
804.003	1056
804.495	1068
804.987	1048
805.479	1021
805.971	1038
806.464	1043
806.956	1021
807.448	1026
807.94	1020
808.433	1018
808.925	1011
809.417	998
809.91	990
810.402	959
810.894	964
811.387	970
811.879	964
812.372	974
812.865	960
813.357	968
813.85	957
814.342	954
814.835	950
815.328	937
815.821	922
816.313	929
816.806	934
817.299	934
817.792	935
818.285	926
818.778	935
819.271	934
819.764	916
820.257	921
820.75	925
821.243	929
821.736	917
822.229	934
822.722	925
823.216	942
