Data from lamp4bck_noballon_dubbel_Subt2__152__952.txt Node

Date: Wed Apr 09 12:19:54 CEST 2025
User: fys-lab-0081
Spectrometer: S04999
Trigger mode: 0
Resolution mode: 1024 pixels
Integration Time (sec): 1.000000E-1
Scans to average: 1
Nonlinearity correction enabled: false
Boxcar width: 0
Baseline correction enabled: true
XAxis mode: Wavelengths
Number of Pixels in Spectrum: 1024
>>>>>Begin Spectral Data<<<<<
336.42	10
336.877	13
337.334	15
337.792	12
338.249	13
338.706	13
339.164	13
339.621	15
340.079	17
340.536	14
340.994	18
341.452	17
341.909	20
342.367	12
342.825	13
343.283	23
343.741	17
344.198	13
344.656	16
345.114	14
345.572	20
346.03	20
346.488	23
346.947	14
347.405	23
347.863	20
348.321	23
348.779	29
349.238	25
349.696	26
350.154	26
350.613	24
351.071	24
351.53	31
351.988	31
352.447	32
352.905	27
353.364	32
353.823	34
354.282	33
354.74	26
355.199	36
355.658	41
356.117	35
356.576	37
357.035	34
357.494	36
357.953	39
358.412	42
358.871	39
359.33	43
359.789	41
360.249	46
360.708	43
361.167	47
361.626	45
362.086	52
362.545	49
363.005	53
363.464	53
363.924	58
364.383	61
364.843	61
365.303	63
365.762	66
366.222	68
366.682	69
367.142	68
367.601	67
368.061	70
368.521	71
368.981	69
369.441	75
369.901	75
370.361	73
370.821	69
371.282	74
371.742	79
372.202	81
372.662	84
373.123	81
373.583	81
374.043	92
374.504	85
374.964	89
375.425	96
375.885	101
376.346	103
376.806	107
377.267	105
377.728	111
378.188	109
378.649	110
379.11	113
379.571	107
380.032	119
380.493	122
380.954	125
381.414	125
381.876	129
382.337	133
382.798	138
383.259	144
383.72	149
384.181	148
384.642	158
385.104	168
385.565	173
386.026	179
386.488	185
386.949	185
387.411	187
387.872	194
388.334	197
388.795	200
389.257	209
389.719	207
390.181	213
390.642	223
391.104	221
391.566	227
392.028	237
392.49	249
392.952	253
393.414	257
393.876	263
394.338	266
394.8	269
395.262	270
395.724	284
396.186	290
396.648	291
397.111	295
397.573	306
398.035	298
398.498	310
398.96	310
399.423	310
399.885	318
400.348	327
400.81	340
401.273	338
401.736	339
402.198	358
402.661	375
403.124	370
403.587	385
404.049	396.5
404.512	408
404.975	411
405.438	406
405.901	424
406.364	423
406.827	420
407.29	418
407.754	414
408.217	425
408.68	418
409.143	431
409.607	437
410.07	438
410.533	438
410.997	452
411.46	449
411.924	464
412.387	468
412.851	483
413.314	497
413.778	500
414.242	512
414.705	536
415.169	523
415.633	534
416.097	536
416.561	544
417.024	553
417.488	526
417.952	547
418.416	530
418.88	539
419.344	536
419.809	537
420.273	548
420.737	545
421.201	559
421.665	572
422.13	565
422.594	584
423.059	599
423.523	601
423.987	607
424.452	629
424.916	648
425.381	674
425.846	668
426.31	687
426.775	694
427.24	702
427.704	695
428.169	697
428.634	705
429.099	689
429.564	688
430.029	704
430.494	700
430.959	704
431.424	697
431.889	718
432.354	733
432.819	716
433.284	745
433.75	751
434.215	775
434.68	779
435.146	790
435.611	821
436.077	849
436.542	862
437.008	899
437.473	913
437.939	914
438.404	935
438.87	958
439.336	936
439.801	948
440.267	954
440.733	971
441.199	971
441.665	974
442.131	993
442.596	968
443.062	1011
443.529	1046
443.995	1051
444.461	1058
444.927	1102
445.393	1106
445.859	1147
446.325	1169
446.792	1237
447.258	1228
447.724	1280
448.191	1336
448.657	1346
449.124	1384
449.59	1369
450.057	1447
450.523	1470
450.99	1488
451.457	1499
451.923	1523
452.39	1495
452.857	1535
453.324	1518
453.791	1543
454.257	1557
454.724	1571
455.191	1552
455.658	1560
456.125	1616
456.592	1573
457.059	1617
457.527	1633
457.994	1691
458.461	1694
458.928	1712
459.396	1714
459.863	1778
460.33	1777
460.798	1784
461.265	1817
461.732	1806
462.2	1847
462.668	1837
463.135	1852
463.603	1809
464.07	1868
464.538	1793
465.006	1844
465.474	1814
465.941	1807
466.409	1813
466.877	1789
467.345	1829
467.813	1795
468.281	1831
468.749	1843
469.217	1826
469.685	1867
470.153	1894
470.621	1882
471.09	1900
471.558	1979
472.026	1948
472.494	2013
472.963	2038
473.431	2078
473.9	2123
474.368	2171
474.837	2200
475.305	2250
475.774	2295
476.242	2344
476.711	2378
477.18	2441
477.648	2411
478.117	2459
478.586	2436
479.055	2440
479.524	2458
479.993	2447
480.462	2424
480.93	2420
481.399	2446
481.869	2458
482.338	2402
482.807	2441
483.276	2449
483.745	2429
484.214	2492
484.684	2533
485.153	2515
485.622	2516
486.092	2590
486.561	2540
487.031	2601
487.5	2656
487.97	2659
488.439	2708
488.909	2772
489.378	2889
489.848	2881
490.318	2955
490.787	3102
491.257	3144
491.727	3163
492.197	3228
492.667	3228
493.137	3252
493.607	3281
494.077	3337
494.547	3300
495.017	3289
495.487	3362
495.957	3431
496.427	3349
496.897	3353
497.368	3405
497.838	3351
498.308	3386
498.779	3401
499.249	3418
499.719	3403
500.19	3445
500.66	3466
501.131	3476
501.602	3534
502.072	3536
502.543	3570
503.014	3665
503.484	3644
503.955	3744
504.426	3844
504.897	3841
505.368	3955
505.838	4016
506.309	4076
506.78	4219
507.251	4335
507.722	4410
508.194	4515
508.665	4568
509.136	4559
509.607	4684
510.078	4779
510.549	4838
511.021	4962
511.492	4927
511.964	5008
512.435	5083
512.906	5033
513.378	5061
513.849	5181
514.321	5197
514.793	5229
515.264	5281
515.736	5363
516.208	5413
516.679	5422
517.151	5509
517.623	5565
518.095	5583
518.567	5608
519.038	5754
519.51	5790
519.982	5846
520.454	5904
520.927	5972
521.399	6021
521.871	6020
522.343	6040
522.815	6169
523.287	6154
523.76	6179
524.232	6291
524.704	6375
525.177	6267
525.649	6309
526.122	6431
526.594	6310
527.067	6437
527.539	6451
528.012	6432
528.484	6429
528.957	6430
529.43	6396
529.903	6402
530.375	6616
530.848	6407
531.321	6494
531.794	6528
532.267	6650
532.74	6477
533.213	6465
533.686	6589
534.159	6559
534.632	6674
535.105	6670
535.578	6808
536.051	6816
536.525	6785
536.998	6769
537.471	6978
537.945	6867
538.418	6910
538.891	6954
539.365	7090
539.838	7114
540.312	7079
540.786	7133
541.259	7176
541.733	7291
542.206	7239
542.68	7123
543.154	7170
543.628	7164
544.101	7309
544.575	7262
545.049	7156
545.523	7327
545.997	7236
546.471	7306
546.945	7305
547.419	7433
547.893	7084
548.367	7164
548.842	7118
549.316	7141
549.79	7163
550.264	7090
550.739	7200
551.213	7252
551.687	7193
552.162	7196
552.636	7143
553.111	7130
553.585	7277
554.06	7091
554.534	7259
555.009	7227
555.484	7324
555.958	7313
556.433	7346
556.908	7510
557.383	7469
557.858	7604
558.333	7609
558.807	7544
559.282	7646
559.757	7810
560.232	7820
560.708	7703
561.183	7714
561.658	7788
562.133	7757
562.608	7678
563.083	7964
563.559	7789
564.034	7788
564.509	7786
564.985	7882
565.46	7851
565.936	7938
566.411	7883
566.887	7753
567.362	7864
567.838	7842
568.313	7876
568.789	7774
569.265	7807
569.74	7865
570.216	7764
570.692	7808
571.168	7790
571.644	7818
572.12	7790
572.596	7804
573.071	7748
573.547	7959
574.024	8086
574.5	8073
574.976	8069
575.452	8182
575.928	8265
576.404	8295
576.881	8515
577.357	8379
577.833	8477
578.31	8703
578.786	8797
579.262	8935
579.739	8841
580.215	9145
580.692	9166
581.169	9079
581.645	9058
582.122	9296
582.598	9259
583.075	9267
583.552	9324
584.029	9309
584.506	9317
584.982	9271
585.459	9466
585.936	9302
586.413	9408
586.89	9574
587.367	9470
587.844	9546
588.321	9456
588.799	9515
589.276	9495
589.753	9650
590.23	9630
590.707	9556
591.185	9580
591.662	9616
592.139	9730
592.617	9811
593.094	9754
593.572	9832
594.049	9946
594.527	9988
595.004	9922
595.482	10162
595.96	10141
596.437	10160
596.915	10361
597.393	10164
597.871	10388
598.349	10299
598.826	10539
599.304	10522
599.782	10649
600.26	10472
600.738	10716
601.216	10691
601.694	10732
602.173	10768
602.651	10894
603.129	10887
603.607	11031
604.085	11078
604.564	11019
605.042	11036
605.52	11039
605.999	11333
606.477	11086
606.956	11023
607.434	11104.5
607.913	11186
608.391	11209
608.87	11128
609.348	10948
609.827	10983
610.306	11102
610.785	11154
611.263	11165
611.742	11053
612.221	10894
612.7	11059
613.179	11146
613.658	10967
614.137	11059
614.616	11112
615.095	10907
615.574	11032
616.053	11045
616.532	10922
617.011	10980
617.491	11036
617.97	11055
618.449	11196
618.928	11274
619.408	11159
619.887	11243
620.367	11335
620.846	11481
621.326	11428
621.805	11568
622.285	11529
622.764	11650
623.244	11708
623.724	11692
624.203	11700
624.683	11473
625.163	11779
625.643	11772
626.123	11670
626.602	11844
627.082	11528
627.562	11553
628.042	11865
628.522	11776
629.002	11740
629.482	11777
629.963	11781
630.443	11733
630.923	11821
631.403	11866
631.883	11747
632.364	11748
632.844	11659
633.324	11722
633.805	11784
634.285	11638
634.766	11547
635.246	11587
635.727	11675
636.207	11724
636.688	11677
637.168	11606
637.649	11456
638.13	11384
638.611	11504
639.091	11516
639.572	11446
640.053	11295
640.534	11383
641.015	11409
641.496	11252
641.977	11406
642.458	11235
642.939	11196
643.42	11260
643.901	11373
644.382	11481
644.863	11433
645.345	11393
645.826	11370
646.307	11410
646.788	11636
647.27	11468
647.751	11488
648.233	11543
648.714	11282
649.196	11592
649.677	11550
650.159	11573
650.64	11421
651.122	11557
651.603	11402
652.085	11561
652.567	11614
653.049	11510
653.53	11437
654.012	11508
654.494	11308
654.976	11469
655.458	11482
655.94	11452
656.422	11589
656.904	11478
657.386	11397
657.868	11493
658.35	11459
658.833	11516
659.315	11482
659.797	11339
660.279	11370
660.762	11471
661.244	11381
661.726	11234
662.209	11172
662.691	11162
663.174	10973
663.656	11063
664.139	11088
664.621	10959
665.104	10808
665.587	10882
666.069	10910
666.552	10885
667.035	10766
667.517	10717
668	10717
668.483	10670
668.966	10618
669.449	10630
669.932	10700
670.415	10866
670.898	10760
671.381	10776
671.864	10814
672.347	10781
672.83	10837
673.313	10847
673.797	10724
674.28	10870
674.763	10859
675.247	10923
675.73	10943
676.213	11058
676.697	11107
677.18	11046
677.664	11012
678.147	11020
678.631	11079
679.114	11172
679.598	11105
680.082	11115
680.565	11087
681.049	11058
681.533	11116
682.017	11269
682.5	11226
682.984	11225
683.468	11159
683.952	10996
684.436	11266
684.92	11165
685.404	11227
685.888	11309
686.372	11207
686.856	11230
687.341	11389
687.825	11323
688.309	11412
688.793	11371
689.278	11156
689.762	11258
690.246	11210
690.731	11292
691.215	11328
691.7	11028
692.184	11108
692.669	11077
693.153	11128
693.638	11040
694.122	11097
694.607	11192
695.092	11025
695.577	11098
696.061	10899
696.546	10898
697.031	10864
697.516	10979
698.001	10955
698.486	10831
698.971	10909
699.456	10694
699.941	10747
700.426	10796
700.911	10910
701.396	10796
701.881	10816
702.366	10735
702.852	10713
703.337	10811
703.822	10834
704.308	10811
704.793	10784
705.278	10737
705.764	10740
706.249	10710
706.735	10796
707.22	10917
707.706	10748
708.191	10870
708.677	10821
709.163	10763
709.648	10898
710.134	11067
710.62	10968
711.106	10919
711.592	11008
712.077	10921
712.563	10688
713.049	10706
713.535	10941
714.021	10853
714.507	10794
714.993	10636
715.479	10725
715.966	10596
716.452	10669
716.938	10729
717.424	10439
717.91	10617
718.397	10434
718.883	10319
719.369	10340
719.856	10293
720.342	10464
720.829	10362
721.315	10400
721.802	10330
722.288	10412
722.775	10108
723.262	9900
723.748	10359
724.235	10293
724.722	10408
725.208	10118
725.695	10067
726.182	10030
726.669	9948
727.156	10062
727.643	9975
728.13	9996
728.617	9901
729.104	9863
729.591	9771
730.078	9870
730.565	9910
731.052	9756
731.539	9762
732.027	9644
732.514	9497
733.001	9575
733.488	9568
733.976	9605
734.463	9623
734.951	9568
735.438	9653
735.926	9484
736.413	9510
736.901	9451
737.388	9611
737.876	9619
738.364	9571
738.851	9614
739.339	9532
739.827	9605
740.314	9377
740.802	9504
741.29	9596
741.778	9504
742.266	9526
742.754	9468
743.242	9484
743.73	9301
744.218	9348
744.706	9335
745.194	9503
745.682	9455
746.17	9455
746.659	9372
747.147	9110
747.635	9205
748.123	9281
748.612	9283
749.1	9254
749.589	9286
750.077	9164
750.566	9086
751.054	9130
751.543	9196
752.031	9065
752.52	9118
753.008	8914
753.497	8862
753.986	8818
754.474	8701
754.963	8761
755.452	8677
755.941	8697
756.43	8721
756.919	8688
757.408	8612
757.896	8610
758.385	8594
758.875	8535
759.364	8519
759.853	8536
760.342	8430
760.831	8600
761.32	8502
761.809	8345
762.299	8390
762.788	8429
763.277	8448
763.767	8390
764.256	8426
764.745	8284
765.235	8367
765.724	8140
766.214	8255
766.703	8277
767.193	8201
767.683	8245
768.172	8109
768.662	8164
769.152	8094
769.641	8097
770.131	7912
770.621	8044
771.111	8028
771.601	8099
772.09	8050
772.58	7890
773.07	7871
773.56	7877
774.05	7725
774.54	7765
775.031	7801
775.521	7825
776.011	7845
776.501	7868
776.991	7688
777.482	7702
777.972	7534
778.462	7558
778.953	7688
779.443	7698
779.933	7674
780.424	7544
780.914	7550
781.405	7514
781.895	7438
782.386	7469
782.877	7510
783.367	7451
783.858	7418
784.349	7424
784.839	7327
785.33	7275
785.821	7188
786.312	7141
786.803	7202
787.293	7277
787.784	7241
788.275	7141
788.766	7029
789.257	7096
789.748	6907
790.24	6859
790.731	6952
791.222	6890
791.713	6935
792.204	6956
792.696	6728
793.187	6771
793.678	6682
794.169	6529
794.661	6698
795.152	6662
795.644	6668
796.135	6675
796.627	6715
797.118	6579
797.61	6507
798.101	6438
798.593	6570
799.085	6508
799.576	6601
800.068	6556
800.56	6566
801.052	6360
801.544	6293
802.035	6293
802.527	6228
803.019	6214
803.511	6213
804.003	6245
804.495	6310
804.987	6244
805.479	6076
805.971	6087
806.464	6089
806.956	5949
807.448	5997
807.94	6048
808.433	6044
808.925	6003
809.417	5933
809.91	5871
810.402	5702
810.894	5752
811.387	5797
811.879	5732
812.372	5781
812.865	5724
813.357	5719
813.85	5643
814.342	5579
814.835	5557
815.328	5596
815.821	5567
816.313	5642
816.806	5729
817.299	5717
817.792	5781
818.285	5705
818.778	5741
819.271	5711
819.764	5600
820.257	5624
820.75	5635
821.243	5681
821.736	5647
822.229	5704
822.722	5684
823.216	5765
