Data from lamp4bck_noballon_dubbel_Subt2__187__987.txt Node

Date: Wed Apr 09 12:19:58 CEST 2025
User: fys-lab-0081
Spectrometer: S04999
Trigger mode: 0
Resolution mode: 1024 pixels
Integration Time (sec): 1.000000E-1
Scans to average: 1
Nonlinearity correction enabled: false
Boxcar width: 0
Baseline correction enabled: true
XAxis mode: Wavelengths
Number of Pixels in Spectrum: 1024
>>>>>Begin Spectral Data<<<<<
336.42	12
336.877	18
337.334	11
337.792	13
338.249	14
338.706	18
339.164	17
339.621	12
340.079	18
340.536	17
340.994	17
341.452	17
341.909	18
342.367	17
342.825	12
343.283	19
343.741	17
344.198	17
344.656	16
345.114	18
345.572	22
346.03	19
346.488	22
346.947	16
347.405	20
347.863	20
348.321	20
348.779	24
349.238	23
349.696	28
350.154	24
350.613	26
351.071	28
351.53	34
351.988	32
352.447	27
352.905	22
353.364	31
353.823	34
354.282	29
354.74	29
355.199	38
355.658	39
356.117	37
356.576	35
357.035	34
357.494	40
357.953	44
358.412	46
358.871	41
359.33	41
359.789	35
360.249	49
360.708	44
361.167	46
361.626	49
362.086	49
362.545	52
363.005	53
363.464	54
363.924	59
364.383	58
364.843	59
365.303	57
365.762	68
366.222	68
366.682	68
367.142	70
367.601	65
368.061	67
368.521	71
368.981	73
369.441	76
369.901	75
370.361	74
370.821	75
371.282	75
371.742	75
372.202	85
372.662	89
373.123	82
373.583	87
374.043	92
374.504	92
374.964	94
375.425	98
375.885	101
376.346	105
376.806	108
377.267	106
377.728	109
378.188	113
378.649	116
379.11	113
379.571	110
380.032	116
380.493	120
380.954	129
381.414	130
381.876	134
382.337	131
382.798	139
383.259	147
383.72	144
384.181	149
384.642	161
385.104	168
385.565	171
386.026	182
386.488	184
386.949	189
387.411	189
387.872	196
388.334	203
388.795	206
389.257	207
389.719	205
390.181	215
390.642	215
391.104	225
391.566	228
392.028	239
392.49	252
392.952	253
393.414	258
393.876	263
394.338	265
394.8	273
395.262	274
395.724	287
396.186	289
396.648	296
397.111	298
397.573	306
398.035	301
398.498	307
398.96	315
399.423	318
399.885	329
400.348	324
400.81	340
401.273	339
401.736	341
402.198	367
402.661	375
403.124	372
403.587	387
404.049	396.5
404.512	406
404.975	422
405.438	412
405.901	421
406.364	424
406.827	427
407.29	420
407.754	423
408.217	427
408.68	421
409.143	437
409.607	441
410.07	443
410.533	438
410.997	455
411.46	458
411.924	465
412.387	471
412.851	487
413.314	500
413.778	509
414.242	511
414.705	544
415.169	531
415.633	536
416.097	539
416.561	550
417.024	562
417.488	539
417.952	548
418.416	539
418.88	540
419.344	537
419.809	545
420.273	560
420.737	547
421.201	563
421.665	575
422.13	574
422.594	589
423.059	596
423.523	610
423.987	610
424.452	636
424.916	657
425.381	677
425.846	678
426.31	688
426.775	703
427.24	714
427.704	700
428.169	699
428.634	714
429.099	704
429.564	702
430.029	712
430.494	707
430.959	717
431.424	704
431.889	729
432.354	740
432.819	720
433.284	758
433.75	757
434.215	780
434.68	777
435.146	801
435.611	830
436.077	863
436.542	872
437.008	909
437.473	923
437.939	919
438.404	943
438.87	966
439.336	946
439.801	957
440.267	974
440.733	980
441.199	981
441.665	982
442.131	1007
442.596	984
443.062	1018
443.529	1054
443.995	1064
444.461	1069
444.927	1108
445.393	1111
445.859	1158
446.325	1183
446.792	1245
447.258	1242
447.724	1294
448.191	1343
448.657	1351
449.124	1395
449.59	1384
450.057	1461
450.523	1479
450.99	1508
451.457	1511
451.923	1535
452.39	1508
452.857	1548
453.324	1528
453.791	1558
454.257	1571
454.724	1582
455.191	1575
455.658	1576
456.125	1628
456.592	1586
457.059	1635
457.527	1653
457.994	1704
458.461	1709
458.928	1726
459.396	1730
459.863	1796
460.33	1791
460.798	1806
461.265	1834
461.732	1821
462.2	1861
462.668	1854
463.135	1871
463.603	1829
464.07	1886
464.538	1809
465.006	1863
465.474	1830
465.941	1822
466.409	1830
466.877	1811
467.345	1847
467.813	1811
468.281	1850
468.749	1863
469.217	1848
469.685	1883
470.153	1915
470.621	1896
471.09	1907
471.558	1999
472.026	1972
472.494	2034
472.963	2051
473.431	2098
473.9	2141
474.368	2200
474.837	2217
475.305	2267
475.774	2317
476.242	2369
476.711	2401
477.18	2464
477.648	2437
478.117	2472
478.586	2467
479.055	2451
479.524	2473
479.993	2459
480.462	2450
480.93	2442
481.399	2459
481.869	2484
482.338	2432
482.807	2470
483.276	2473
483.745	2451
484.214	2519
484.684	2550
485.153	2533
485.622	2539
486.092	2616
486.561	2567
487.031	2632
487.5	2686
487.97	2680
488.439	2735
488.909	2805
489.378	2910
489.848	2906
490.318	2981
490.787	3128
491.257	3165
491.727	3188
492.197	3265
492.667	3248
493.137	3293
493.607	3310
494.077	3371
494.547	3321
495.017	3319
495.487	3388
495.957	3467
496.427	3380
496.897	3382
497.368	3430
497.838	3376
498.308	3405
498.779	3424
499.249	3440
499.719	3434
500.19	3467
500.66	3501
501.131	3507
501.602	3565
502.072	3562
502.543	3598
503.014	3690
503.484	3675
503.955	3771
504.426	3879
504.897	3882
505.368	3981
505.838	4046
506.309	4111
506.78	4254
507.251	4372
507.722	4446
508.194	4546
508.665	4609
509.136	4592
509.607	4725
510.078	4815
510.549	4877
511.021	5012
511.492	4961
511.964	5051
512.435	5134
512.906	5068
513.378	5102
513.849	5218
514.321	5237
514.793	5281
515.264	5326
515.736	5404
516.208	5465
516.679	5473
517.151	5559
517.623	5609
518.095	5628
518.567	5654
519.038	5802
519.51	5832
519.982	5885
520.454	5954
520.927	6020
521.399	6065
521.871	6079
522.343	6100
522.815	6232
523.287	6201
523.76	6219
524.232	6345
524.704	6426
525.177	6325
525.649	6359
526.122	6489
526.594	6361
527.067	6486
527.539	6517
528.012	6482
528.484	6479
528.957	6476
529.43	6444
529.903	6461
530.375	6663
530.848	6460
531.321	6544
531.794	6591
532.267	6702
532.74	6515
533.213	6513
533.686	6641
534.159	6613
534.632	6737
535.105	6715
535.578	6862
536.051	6869
536.525	6836
536.998	6827
537.471	7008
537.945	6917
538.418	6962
538.891	7009
539.365	7144
539.838	7170
540.312	7146
540.786	7189
541.259	7239
541.733	7353
542.206	7304
542.68	7189
543.154	7225
543.628	7224
544.101	7369
544.575	7334
545.049	7205
545.523	7384
545.997	7305
546.471	7362
546.945	7361
547.419	7488
547.893	7143
548.367	7214
548.842	7172
549.316	7200
549.79	7220
550.264	7146
550.739	7254
551.213	7293
551.687	7247
552.162	7274
552.636	7200
553.111	7176
553.585	7322
554.06	7144
554.534	7314
555.009	7275
555.484	7373
555.958	7373
556.433	7409
556.908	7568
557.383	7521
557.858	7665
558.333	7674
558.807	7603
559.282	7703
559.757	7867
560.232	7886
560.708	7743
561.183	7766
561.658	7844
562.133	7803
562.608	7745
563.083	8018
563.559	7843
564.034	7855
564.509	7860
564.985	7940
565.46	7912
565.936	7999
566.411	7945
566.887	7807
567.362	7913
567.838	7885
568.313	7936
568.789	7840
569.265	7854
569.74	7928
570.216	7814
570.692	7877
571.168	7854
571.644	7890
572.12	7844
572.596	7866
573.071	7805
573.547	8016
574.024	8145
574.5	8140
574.976	8126
575.452	8250
575.928	8338
576.404	8373
576.881	8587
577.357	8425
577.833	8542
578.31	8777
578.786	8864
579.262	8996
579.739	8911
580.215	9213
580.692	9246
581.169	9128
581.645	9126
582.122	9359
582.598	9324
583.075	9329
583.552	9393
584.029	9372
584.506	9394
584.982	9332
585.459	9523
585.936	9367
586.413	9476
586.89	9637
587.367	9542
587.844	9615
588.321	9532
588.799	9580
589.276	9559
589.753	9706
590.23	9707
590.707	9625
591.185	9640
591.662	9682
592.139	9806
592.617	9889
593.094	9836
593.572	9908
594.049	10039
594.527	10062
595.004	9981
595.482	10222
595.96	10215
596.437	10250
596.915	10425
597.393	10237
597.871	10466
598.349	10385
598.826	10618
599.304	10585
599.782	10711
600.26	10555
600.738	10804
601.216	10768
601.694	10811
602.173	10842
602.651	10980
603.129	10962
603.607	11112
604.085	11143
604.564	11071
605.042	11134
605.52	11122
605.999	11411
606.477	11151
606.956	11103
607.434	11183
607.913	11263
608.391	11285
608.87	11204
609.348	11007
609.827	11065
610.306	11186
610.785	11221
611.263	11223
611.742	11141
612.221	10968
612.7	11163
613.179	11216
613.658	11054
614.137	11147
614.616	11198
615.095	10980
615.574	11110
616.053	11121
616.532	10988
617.011	11055
617.491	11120
617.97	11132
618.449	11263
618.928	11348
619.408	11223
619.887	11339
620.367	11419
620.846	11554
621.326	11507
621.805	11636
622.285	11612
622.764	11737
623.244	11781
623.724	11768
624.203	11781
624.683	11555
625.163	11837
625.643	11853
626.123	11756
626.602	11930
627.082	11602
627.562	11615
628.042	11947
628.522	11867
629.002	11827
629.482	11850
629.963	11854
630.443	11799
630.923	11908
631.403	11966
631.883	11817
632.364	11809
632.844	11731
633.324	11797
633.805	11870
634.285	11721
634.766	11625
635.246	11657
635.727	11756
636.207	11786
636.688	11754
637.168	11679
637.649	11543
638.13	11472
638.611	11579
639.091	11581
639.572	11521
640.053	11369
640.534	11458
641.015	11483
641.496	11327
641.977	11470
642.458	11301
642.939	11257
643.42	11338
643.901	11445
644.382	11556
644.863	11505
645.345	11469
645.826	11450
646.307	11490
646.788	11729
647.27	11544
647.751	11578
648.233	11616
648.714	11365
649.196	11680
649.677	11636
650.159	11663
650.64	11496
651.122	11636
651.603	11482
652.085	11637
652.567	11681
653.049	11587
653.53	11527
654.012	11598
654.494	11403
654.976	11531
655.458	11542
655.94	11539
656.422	11669
656.904	11566
657.386	11471
657.868	11554
658.35	11549
658.833	11582
659.315	11566
659.797	11412
660.279	11432
660.762	11551
661.244	11464
661.726	11314
662.209	11252
662.691	11246
663.174	11036
663.656	11147
664.139	11162
664.621	11039
665.104	10889
665.587	10938
666.069	10973
666.552	10960
667.035	10840
667.517	10788
668	10781
668.483	10733
668.966	10690
669.449	10694
669.932	10782
670.415	10951
670.898	10841
671.381	10855
671.864	10880
672.347	10851
672.83	10896
673.313	10911
673.797	10809
674.28	10940
674.763	10925
675.247	11001
675.73	11017
676.213	11124
676.697	11180
677.18	11105
677.664	11102
678.147	11094
678.631	11162
679.114	11247
679.598	11184
680.082	11201
680.565	11163
681.049	11148
681.533	11195
682.017	11330
682.5	11304
682.984	11282
683.468	11214
683.952	11071
684.436	11315
684.92	11238
685.404	11298
685.888	11373
686.372	11286
686.856	11294
687.341	11458
687.825	11405
688.309	11479
688.793	11430
689.278	11228
689.762	11329
690.246	11288
690.731	11379
691.215	11411
691.7	11076
692.184	11167
692.669	11139
693.153	11208
693.638	11109
694.122	11162
694.607	11253
695.092	11098
695.577	11160
696.061	10967
696.546	10965
697.031	10939
697.516	11047
698.001	11029
698.486	10898
698.971	10973
699.456	10759
699.941	10831
700.426	10869
700.911	10981
701.396	10845
701.881	10889
702.366	10806
702.852	10774
703.337	10889
703.822	10888
704.308	10881
704.793	10875
705.278	10805
705.764	10808
706.249	10790
706.735	10867
707.22	10994
707.706	10814
708.191	10926
708.677	10886
709.163	10836
709.648	10955
710.134	11123
710.62	11027
711.106	10987
711.592	11066
712.077	10990
712.563	10737
713.049	10770
713.535	11010
714.021	10930
714.507	10858
714.993	10695
715.479	10802
715.966	10657
716.452	10738
716.938	10793
717.424	10510
717.91	10678
718.397	10504
718.883	10394
719.369	10404
719.856	10355
720.342	10540
720.829	10430
721.315	10456
721.802	10406
722.288	10478
722.775	10181
723.262	9952
723.748	10422
724.235	10348
724.722	10460
725.208	10190
725.695	10143
726.182	10103
726.669	10009
727.156	10123
727.643	10024
728.13	10057
728.617	9964
729.104	9920
729.591	9838
730.078	9951
730.565	9970
731.052	9820
731.539	9842
732.027	9713
732.514	9545
733.001	9641
733.488	9627
733.976	9664
734.463	9676
734.951	9632
735.438	9704
735.926	9548
736.413	9568
736.901	9504
737.388	9677
737.876	9685
738.364	9635
738.851	9657
739.339	9585
739.827	9659
740.314	9429
740.802	9558
741.29	9658
741.778	9568
742.266	9578
742.754	9525
743.242	9551
743.73	9365
744.218	9405
744.706	9386
745.194	9559
745.682	9519
746.17	9528
746.659	9427
747.147	9163
747.635	9265
748.123	9327
748.612	9343
749.1	9313
749.589	9344
750.077	9234
750.566	9143
751.054	9173
751.543	9265
752.031	9127
752.52	9176
753.008	8972
753.497	8921
753.986	8867
754.474	8766
754.963	8816
755.452	8728
755.941	8762
756.43	8779
756.919	8753
757.408	8669
757.896	8663
758.385	8656
758.875	8602
759.364	8580
759.853	8588
760.342	8481
760.831	8646
761.32	8545
761.809	8382
762.299	8438
762.788	8480
763.277	8506
763.767	8430
764.256	8468
764.745	8344
765.235	8419
765.724	8184
766.214	8296
766.703	8319
767.193	8243
767.683	8294
768.172	8160
768.662	8215
769.152	8151
769.641	8159
770.131	7967
770.621	8098
771.111	8073
771.601	8143
772.09	8087
772.58	7948
773.07	7899
773.56	7928
774.05	7770
774.54	7805
775.031	7852
775.521	7863
776.011	7886
776.501	7915
776.991	7734
777.482	7756
777.972	7579
778.462	7613
778.953	7738
779.443	7734
779.933	7721
780.424	7595
780.914	7582
781.405	7564
781.895	7498
782.386	7523
782.877	7560
783.367	7502
783.858	7470
784.349	7464
784.839	7367
785.33	7329
785.821	7234
786.312	7193
786.803	7239
787.293	7316
787.784	7276
788.275	7167
788.766	7082
789.257	7150
789.748	6945
790.24	6894
790.731	6984
791.222	6937
791.713	6961
792.204	6989
792.696	6782
793.187	6809
793.678	6728
794.169	6564
794.661	6739
795.152	6694
795.644	6722
796.135	6727
796.627	6761
797.118	6621
797.61	6532
798.101	6478
798.593	6612
799.085	6556
799.576	6624
800.068	6591
800.56	6599
801.052	6398
801.544	6335
802.035	6342
802.527	6273
803.019	6246
803.511	6265
804.003	6285
804.495	6350
804.987	6283
805.479	6127
805.971	6126
806.464	6118
806.956	5990
807.448	6030
807.94	6088
808.433	6082
808.925	6034
809.417	5967
809.91	5907
810.402	5741
810.894	5771
811.387	5831
811.879	5774
812.372	5833
812.865	5764
813.357	5752
813.85	5675
814.342	5606
814.835	5599
815.328	5617
815.821	5602
816.313	5676
816.806	5759
817.299	5753
817.792	5823
818.285	5732
818.778	5772
819.271	5735
819.764	5628
820.257	5655
820.75	5677
821.243	5718
821.736	5679
822.229	5727
822.722	5725
823.216	5805
