Data from lamp4bck_noballon_dubbel_Subt2__194__994.txt Node

Date: Wed Apr 09 12:19:59 CEST 2025
User: fys-lab-0081
Spectrometer: S04999
Trigger mode: 0
Resolution mode: 1024 pixels
Integration Time (sec): 1.000000E-1
Scans to average: 1
Nonlinearity correction enabled: false
Boxcar width: 0
Baseline correction enabled: true
XAxis mode: Wavelengths
Number of Pixels in Spectrum: 1024
>>>>>Begin Spectral Data<<<<<
336.42	7
336.877	10
337.334	16
337.792	15
338.249	13
338.706	14
339.164	16
339.621	17
340.079	15
340.536	14
340.994	14
341.452	14
341.909	18
342.367	18
342.825	14
343.283	21
343.741	17
344.198	14
344.656	20
345.114	19
345.572	21
346.03	19
346.488	18
346.947	19
347.405	25
347.863	16
348.321	20
348.779	25
349.238	24
349.696	25
350.154	25
350.613	28
351.071	27
351.53	33
351.988	29
352.447	28
352.905	26
353.364	29
353.823	35
354.282	34
354.74	30
355.199	36
355.658	40
356.117	38
356.576	40
357.035	39
357.494	40
357.953	39
358.412	45
358.871	37
359.33	42
359.789	44
360.249	45
360.708	47
361.167	48
361.626	46
362.086	49
362.545	52
363.005	51
363.464	54
363.924	58
364.383	57
364.843	61
365.303	64
365.762	66
366.222	64
366.682	63
367.142	69
367.601	71
368.061	66
368.521	72
368.981	70
369.441	78
369.901	76
370.361	75
370.821	74
371.282	80
371.742	82
372.202	81
372.662	85
373.123	83
373.583	88
374.043	89
374.504	88
374.964	91
375.425	94
375.885	101
376.346	107
376.806	106
377.267	104
377.728	114
378.188	111
378.649	113
379.11	113
379.571	108
380.032	121
380.493	124
380.954	130
381.414	126
381.876	132
382.337	136
382.798	145
383.259	145
383.72	152
384.181	154
384.642	165
385.104	168
385.565	169
386.026	182
386.488	184
386.949	182
387.411	187
387.872	196
388.334	201
388.795	206
389.257	208
389.719	211
390.181	213
390.642	217
391.104	227
391.566	231
392.028	239
392.49	255
392.952	249
393.414	265
393.876	264
394.338	265
394.8	274
395.262	275
395.724	285
396.186	291
396.648	292
397.111	297
397.573	306
398.035	298
398.498	312
398.96	318
399.423	317
399.885	325
400.348	323
400.81	343
401.273	340
401.736	343
402.198	362
402.661	375
403.124	371
403.587	393
404.049	401.5
404.512	410
404.975	417
405.438	412
405.901	425
406.364	421
406.827	425
407.29	423
407.754	420
408.217	429
408.68	422
409.143	437
409.607	441
410.07	444
410.533	445
410.997	454
411.46	459
411.924	470
412.387	475
412.851	488
413.314	505
413.778	507
414.242	515
414.705	541
415.169	532
415.633	534
416.097	538
416.561	546
417.024	557
417.488	534
417.952	545
418.416	534
418.88	539
419.344	540
419.809	543
420.273	561
420.737	548
421.201	558
421.665	574
422.13	573
422.594	588
423.059	602
423.523	606
423.987	609
424.452	638
424.916	657
425.381	680
425.846	683
426.31	691
426.775	703
427.24	708
427.704	698
428.169	706
428.634	713
429.099	703
429.564	696
430.029	710
430.494	711
430.959	714
431.424	708
431.889	724
432.354	740
432.819	719
433.284	752
433.75	754
434.215	780
434.68	781
435.146	800
435.611	834
436.077	862
436.542	871
437.008	905
437.473	922
437.939	923
438.404	949
438.87	963
439.336	949
439.801	953
440.267	970
440.733	977
441.199	977
441.665	981
442.131	1008
442.596	985
443.062	1013
443.529	1050
443.995	1066
444.461	1066
444.927	1109
445.393	1115
445.859	1157
446.325	1181
446.792	1249
447.258	1243
447.724	1288
448.191	1346
448.657	1352
449.124	1396
449.59	1380
450.057	1463
450.523	1489
450.99	1505
451.457	1512
451.923	1534
452.39	1513
452.857	1552
453.324	1528
453.791	1557
454.257	1572
454.724	1585
455.191	1569
455.658	1577
456.125	1626
456.592	1588
457.059	1640
457.527	1650
457.994	1709
458.461	1703
458.928	1735
459.396	1733
459.863	1789
460.33	1789
460.798	1803
461.265	1827
461.732	1818
462.2	1860
462.668	1854
463.135	1870
463.603	1819
464.07	1882
464.538	1807
465.006	1864
465.474	1829
465.941	1830
466.409	1833
466.877	1804
467.345	1844
467.813	1812
468.281	1846
468.749	1863
469.217	1844
469.685	1885
470.153	1919
470.621	1899
471.09	1914
471.558	2003
472.026	1970
472.494	2037
472.963	2052
473.431	2097
473.9	2145
474.368	2197
474.837	2212
475.305	2267
475.774	2313
476.242	2370
476.711	2402
477.18	2454
477.648	2434
478.117	2481
478.586	2466
479.055	2460
479.524	2482
479.993	2466
480.462	2453
480.93	2439
481.399	2468
481.869	2480
482.338	2430
482.807	2465
483.276	2469
483.745	2449
484.214	2514
484.684	2552
485.153	2530
485.622	2537
486.092	2611
486.561	2567
487.031	2625
487.5	2689
487.97	2692
488.439	2740
488.909	2799
489.378	2913
489.848	2899
490.318	2983
490.787	3131
491.257	3164
491.727	3186
492.197	3260
492.667	3251
493.137	3287
493.607	3318
494.077	3370
494.547	3328
495.017	3316
495.487	3403
495.957	3464
496.427	3374
496.897	3381
497.368	3428
497.838	3378
498.308	3404
498.779	3424
499.249	3442
499.719	3434
500.19	3470
500.66	3500
501.131	3510
501.602	3559
502.072	3567
502.543	3603
503.014	3704
503.484	3663
503.955	3771
504.426	3878
504.897	3886
505.368	3981
505.838	4044
506.309	4108
506.78	4253
507.251	4372
507.722	4435
508.194	4537
508.665	4609
509.136	4598
509.607	4717
510.078	4815
510.549	4875
511.021	5012
511.492	4975
511.964	5050
512.435	5133
512.906	5071
513.378	5107
513.849	5217
514.321	5226
514.793	5268
515.264	5326
515.736	5398
516.208	5454
516.679	5475
517.151	5550
517.623	5599
518.095	5636
518.567	5649
519.038	5806
519.51	5835
519.982	5894
520.454	5953
520.927	6023
521.399	6074
521.871	6080
522.343	6103
522.815	6227
523.287	6209
523.76	6213
524.232	6333
524.704	6427
525.177	6319
525.649	6355
526.122	6496
526.594	6355
527.067	6492
527.539	6515
528.012	6476
528.484	6480
528.957	6485
529.43	6442
529.903	6463
530.375	6666
530.848	6458
531.321	6536
531.794	6586
532.267	6711
532.74	6522
533.213	6505
533.686	6648
534.159	6625
534.632	6721
535.105	6714
535.578	6875
536.051	6870
536.525	6845
536.998	6827
537.471	7008
537.945	6911
538.418	6960
538.891	7012
539.365	7131
539.838	7165
540.312	7158
540.786	7189
541.259	7230
541.733	7345
542.206	7303
542.68	7176
543.154	7230
543.628	7220
544.101	7363
544.575	7322
545.049	7206
545.523	7390
545.997	7310
546.471	7374
546.945	7358
547.419	7495
547.893	7145
548.367	7221
548.842	7168
549.316	7204
549.79	7227
550.264	7150
550.739	7251
551.213	7293
551.687	7249
552.162	7272
552.636	7205
553.111	7184
553.585	7323
554.06	7142
554.534	7317
555.009	7275
555.484	7384
555.958	7379
556.433	7425
556.908	7565
557.383	7516
557.858	7665
558.333	7671
558.807	7597
559.282	7699
559.757	7870
560.232	7880
560.708	7753
561.183	7780
561.658	7838
562.133	7816
562.608	7739
563.083	8027
563.559	7852
564.034	7843
564.509	7852
564.985	7956
565.46	7913
565.936	8006
566.411	7940
566.887	7820
567.362	7935
567.838	7892
568.313	7945
568.789	7834
569.265	7865
569.74	7924
570.216	7816
570.692	7877
571.168	7855
571.644	7889
572.12	7834
572.596	7877
573.071	7808
573.547	8019
574.024	8134
574.5	8131
574.976	8125
575.452	8243
575.928	8333
576.404	8371
576.881	8580
577.357	8433
577.833	8529
578.31	8773
578.786	8870
579.262	8992
579.739	8905
580.215	9216
580.692	9252
581.169	9137
581.645	9138
582.122	9365
582.598	9332
583.075	9332
583.552	9399
584.029	9382
584.506	9390
584.982	9352
585.459	9551
585.936	9358
586.413	9474
586.89	9639
587.367	9527
587.844	9622
588.321	9527
588.799	9571
589.276	9554
589.753	9716
590.23	9708
590.707	9634
591.185	9663
591.662	9681
592.139	9809
592.617	9887
593.094	9824
593.572	9906
594.049	10042
594.527	10063
595.004	9984
595.482	10218
595.96	10215
596.437	10243
596.915	10430
597.393	10244
597.871	10454
598.349	10373
598.826	10612
599.304	10593
599.782	10719
600.26	10541
600.738	10793
601.216	10764
601.694	10811
602.173	10842
602.651	10984
603.129	10974
603.607	11098
604.085	11158
604.564	11082
605.042	11120
605.52	11121
605.999	11408
606.477	11148
606.956	11111
607.434	11189
607.913	11267
608.391	11273
608.87	11205
609.348	11012
609.827	11066
610.306	11166
610.785	11237
611.263	11234
611.742	11138
612.221	10985
612.7	11153
613.179	11233
613.658	11043
614.137	11140
614.616	11174
615.095	10971
615.574	11110
616.053	11126
616.532	10991
617.011	11052
617.491	11115
617.97	11127
618.449	11267
618.928	11349
619.408	11226
619.887	11316
620.367	11406
620.846	11557
621.326	11503
621.805	11637
622.285	11602
622.764	11730
623.244	11778
623.724	11775
624.203	11779
624.683	11562
625.163	11839
625.643	11859
626.123	11744
626.602	11926
627.082	11606
627.562	11617
628.042	11935
628.522	11868
629.002	11806
629.482	11857
629.963	11864
630.443	11818
630.923	11902
631.403	11974
631.883	11820
632.364	11818
632.844	11736
633.324	11801
633.805	11868
634.285	11715
634.766	11637
635.246	11660
635.727	11757
636.207	11801
636.688	11742
637.168	11695
637.649	11534
638.13	11466
638.611	11573
639.091	11591
639.572	11521
640.053	11373
640.534	11465
641.015	11488
641.496	11331
641.977	11468
642.458	11304
642.939	11265
643.42	11336
643.901	11458
644.382	11562
644.863	11514
645.345	11461
645.826	11454
646.307	11495
646.788	11701
647.27	11537
647.751	11572
648.233	11625
648.714	11352
649.196	11670
649.677	11625
650.159	11654
650.64	11489
651.122	11641
651.603	11475
652.085	11637
652.567	11689
653.049	11580
653.53	11521
654.012	11581
654.494	11389
654.976	11537
655.458	11560
655.94	11528
656.422	11660
656.904	11552
657.386	11483
657.868	11562
658.35	11535
658.833	11590
659.315	11561
659.797	11423
660.279	11442
660.762	11555
661.244	11451
661.726	11300
662.209	11244
662.691	11244
663.174	11037
663.656	11139
664.139	11162
664.621	11042
665.104	10884
665.587	10945
666.069	10969
666.552	10956
667.035	10836
667.517	10782
668	10786
668.483	10743
668.966	10682
669.449	10686
669.932	10768
670.415	10934
670.898	10840
671.381	10839
671.864	10883
672.347	10846
672.83	10912
673.313	10927
673.797	10812
674.28	10933
674.763	10923
675.247	10987
675.73	11005
676.213	11129
676.697	11192
677.18	11112
677.664	11086
678.147	11103
678.631	11151
679.114	11258
679.598	11194
680.082	11201
680.565	11157
681.049	11153
681.533	11188
682.017	11347
682.5	11291
682.984	11304
683.468	11211
683.952	11062
684.436	11328
684.92	11237
685.404	11301
685.888	11377
686.372	11280
686.856	11297
687.341	11457
687.825	11406
688.309	11478
688.793	11424
689.278	11230
689.762	11337
690.246	11276
690.731	11375
691.215	11405
691.7	11088
692.184	11177
692.669	11158
693.153	11211
693.638	11114
694.122	11162
694.607	11266
695.092	11103
695.577	11165
696.061	10967
696.546	10960
697.031	10939
697.516	11048
698.001	11036
698.486	10911
698.971	10978
699.456	10756
699.941	10828
700.426	10875
700.911	10972
701.396	10851
701.881	10892
702.366	10815
702.852	10764
703.337	10875
703.822	10891
704.308	10874
704.793	10862
705.278	10795
705.764	10802
706.249	10791
706.735	10880
707.22	10988
707.706	10811
708.191	10939
708.677	10891
709.163	10827
709.648	10971
710.134	11118
710.62	11021
711.106	10983
711.592	11068
712.077	10990
712.563	10745
713.049	10767
713.535	11028
714.021	10933
714.507	10859
714.993	10701
715.479	10796
715.966	10652
716.452	10740
716.938	10793
717.424	10502
717.91	10677
718.397	10497
718.883	10395
719.369	10398
719.856	10350
720.342	10529
720.829	10430
721.315	10469
721.802	10407
722.288	10485
722.775	10179
723.262	9952
723.748	10429
724.235	10354
724.722	10456
725.208	10185
725.695	10138
726.182	10104
726.669	10022
727.156	10137
727.643	10037
728.13	10057
728.617	9960
729.104	9921
729.591	9826
730.078	9932
730.565	9973
731.052	9827
731.539	9841
732.027	9707
732.514	9551
733.001	9632
733.488	9634
733.976	9662
734.463	9673
734.951	9624
735.438	9706
735.926	9553
736.413	9569
736.901	9513
737.388	9667
737.876	9687
738.364	9638
738.851	9667
739.339	9581
739.827	9660
740.314	9421
740.802	9558
741.29	9663
741.778	9566
742.266	9578
742.754	9527
743.242	9539
743.73	9349
744.218	9402
744.706	9395
745.194	9559
745.682	9509
746.17	9526
746.659	9427
747.147	9175
747.635	9264
748.123	9326
748.612	9336
749.1	9310
749.589	9344
750.077	9231
750.566	9137
751.054	9174
751.543	9262
752.031	9108
752.52	9164
753.008	8971
753.497	8916
753.986	8863
754.474	8764
754.963	8821
755.452	8733
755.941	8761
756.43	8776
756.919	8757
757.408	8682
757.896	8663
758.385	8658
758.875	8587
759.364	8567
759.853	8584
760.342	8463
760.831	8648
761.32	8552
761.809	8389
762.299	8438
762.788	8477
763.277	8514
763.767	8447
764.256	8487
764.745	8342
765.235	8414
765.724	8192
766.214	8298
766.703	8314
767.193	8236
767.683	8285
768.172	8157
768.662	8230
769.152	8153
769.641	8146
770.131	7966
770.621	8097
771.111	8071
771.601	8153
772.09	8087
772.58	7949
773.07	7912
773.56	7917
774.05	7773
774.54	7806
775.031	7847
775.521	7875
776.011	7881
776.501	7921
776.991	7732
777.482	7754
777.972	7589
778.462	7609
778.953	7737
779.443	7735
779.933	7728
780.424	7598
780.914	7592
781.405	7565
781.895	7485
782.386	7518
782.877	7562
783.367	7485
783.858	7466
784.349	7467
784.839	7365
785.33	7325
785.821	7227
786.312	7173
786.803	7246
787.293	7316
787.784	7275
788.275	7186
788.766	7069
789.257	7148
789.748	6955
790.24	6898
790.731	6986
791.222	6943
791.713	6966
792.204	7000
792.696	6781
793.187	6812
793.678	6737
794.169	6563
794.661	6723
795.152	6693
795.644	6714
796.135	6722
796.627	6758
797.118	6631
797.61	6540
798.101	6486
798.593	6612
799.085	6552
799.576	6634
800.068	6597
800.56	6611
801.052	6407
801.544	6340
802.035	6335
802.527	6279
803.019	6244
803.511	6260
804.003	6284
804.495	6345
804.987	6286
805.479	6123
805.971	6130
806.464	6121
806.956	5993
807.448	6023
807.94	6088
808.433	6087
808.925	6046
809.417	5960
809.91	5906
810.402	5732
810.894	5780
811.387	5838
811.879	5772
812.372	5829
812.865	5776
813.357	5756
813.85	5676
814.342	5606
814.835	5595
815.328	5626
815.821	5597
816.313	5676
816.806	5757
817.299	5750
817.792	5816
818.285	5739
818.778	5774
819.271	5745
819.764	5629
820.257	5655
820.75	5664
821.243	5721
821.736	5685
822.229	5734
822.722	5712
823.216	5802
