Data from lamp4bck_noballon_dubbel_Subt2__173__973.txt Node

Date: Wed Apr 09 12:19:56 CEST 2025
User: fys-lab-0081
Spectrometer: S04999
Trigger mode: 0
Resolution mode: 1024 pixels
Integration Time (sec): 1.000000E-1
Scans to average: 1
Nonlinearity correction enabled: false
Boxcar width: 0
Baseline correction enabled: true
XAxis mode: Wavelengths
Number of Pixels in Spectrum: 1024
>>>>>Begin Spectral Data<<<<<
336.42	10
336.877	13
337.334	11
337.792	16
338.249	15
338.706	14
339.164	13
339.621	14
340.079	17
340.536	19
340.994	17
341.452	17
341.909	20
342.367	13
342.825	13
343.283	21
343.741	18
344.198	19
344.656	14
345.114	22
345.572	22
346.03	18
346.488	21
346.947	19
347.405	23
347.863	19
348.321	19
348.779	27
349.238	27
349.696	28
350.154	24
350.613	25
351.071	29
351.53	30
351.988	31
352.447	31
352.905	26
353.364	31
353.823	32
354.282	33
354.74	26
355.199	38
355.658	38
356.117	37
356.576	39
357.035	33
357.494	37
357.953	37
358.412	46
358.871	45
359.33	40
359.789	36
360.249	46
360.708	50
361.167	49
361.626	51
362.086	52
362.545	55
363.005	52
363.464	55
363.924	58
364.383	58
364.843	63
365.303	66
365.762	67
366.222	68
366.682	69
367.142	70
367.601	70
368.061	70
368.521	76
368.981	69
369.441	74
369.901	75
370.361	75
370.821	73
371.282	80
371.742	83
372.202	80
372.662	83
373.123	83
373.583	89
374.043	93
374.504	91
374.964	94
375.425	97
375.885	102
376.346	107
376.806	105
377.267	102
377.728	112
378.188	112
378.649	107
379.11	117
379.571	107
380.032	120
380.493	125
380.954	129
381.414	123
381.876	135
382.337	132
382.798	143
383.259	145
383.72	152
384.181	156
384.642	157
385.104	169
385.565	172
386.026	183
386.488	184
386.949	184
387.411	188
387.872	195
388.334	202
388.795	205
389.257	207
389.719	209
390.181	216
390.642	219
391.104	222
391.566	230
392.028	241
392.49	255
392.952	255
393.414	261
393.876	260
394.338	269
394.8	269
395.262	270
395.724	285
396.186	289
396.648	294
397.111	295
397.573	308
398.035	302
398.498	314
398.96	312
399.423	317
399.885	323
400.348	327
400.81	343
401.273	340
401.736	346
402.198	364
402.661	373
403.124	372
403.587	395
404.049	401.5
404.512	408
404.975	417
405.438	408
405.901	419
406.364	426
406.827	425
407.29	426
407.754	423
408.217	423
408.68	425
409.143	436
409.607	441
410.07	438
410.533	444
410.997	451
411.46	458
411.924	463
412.387	472
412.851	489
413.314	504
413.778	505
414.242	514
414.705	540
415.169	528
415.633	539
416.097	533
416.561	545
417.024	558
417.488	533
417.952	548
418.416	539
418.88	537
419.344	544
419.809	547
420.273	558
420.737	550
421.201	563
421.665	578
422.13	570
422.594	586
423.059	599
423.523	608
423.987	608
424.452	641
424.916	654
425.381	676
425.846	683
426.31	689
426.775	700
427.24	709
427.704	701
428.169	700
428.634	706
429.099	701
429.564	701
430.029	706
430.494	705
430.959	711
431.424	703
431.889	727
432.354	733
432.819	723
433.284	755
433.75	756
434.215	775
434.68	783
435.146	803
435.611	834
436.077	859
436.542	873
437.008	912
437.473	920
437.939	924
438.404	942
438.87	959
439.336	944
439.801	952
440.267	967
440.733	977
441.199	980
441.665	982
442.131	1006
442.596	983
443.062	1019
443.529	1056
443.995	1065
444.461	1071
444.927	1109
445.393	1116
445.859	1160
446.325	1179
446.792	1246
447.258	1242
447.724	1291
448.191	1344
448.657	1354
449.124	1393
449.59	1381
450.057	1456
450.523	1485
450.99	1510
451.457	1508
451.923	1529
452.39	1512
452.857	1549
453.324	1529
453.791	1554
454.257	1569
454.724	1580
455.191	1574
455.658	1573
456.125	1630
456.592	1587
457.059	1638
457.527	1644
457.994	1702
458.461	1705
458.928	1731
459.396	1732
459.863	1800
460.33	1788
460.798	1803
461.265	1827
461.732	1815
462.2	1858
462.668	1850
463.135	1866
463.603	1823
464.07	1886
464.538	1801
465.006	1858
465.474	1828
465.941	1826
466.409	1833
466.877	1807
467.345	1847
467.813	1808
468.281	1851
468.749	1855
469.217	1843
469.685	1885
470.153	1914
470.621	1892
471.09	1911
471.558	1992
472.026	1970
472.494	2037
472.963	2051
473.431	2092
473.9	2135
474.368	2194
474.837	2214
475.305	2264
475.774	2314
476.242	2362
476.711	2393
477.18	2455
477.648	2435
478.117	2474
478.586	2466
479.055	2452
479.524	2470
479.993	2465
480.462	2447
480.93	2435
481.399	2459
481.869	2484
482.338	2429
482.807	2470
483.276	2470
483.745	2453
484.214	2515
484.684	2554
485.153	2524
485.622	2531
486.092	2603
486.561	2565
487.031	2627
487.5	2688
487.97	2677
488.439	2730
488.909	2803
489.378	2910
489.848	2910
490.318	2975
490.787	3136
491.257	3159
491.727	3185
492.197	3247
492.667	3245
493.137	3280
493.607	3317
494.077	3370
494.547	3328
495.017	3312
495.487	3390
495.957	3456
496.427	3369
496.897	3378
497.368	3429
497.838	3379
498.308	3407
498.779	3424
499.249	3435
499.719	3436
500.19	3470
500.66	3508
501.131	3510
501.602	3552
502.072	3569
502.543	3604
503.014	3702
503.484	3660
503.955	3769
504.426	3881
504.897	3880
505.368	3983
505.838	4040
506.309	4105
506.78	4250
507.251	4372
507.722	4441
508.194	4532
508.665	4610
509.136	4597
509.607	4717
510.078	4802
510.549	4871
511.021	5013
511.492	4968
511.964	5045
512.435	5124
512.906	5057
513.378	5094
513.849	5216
514.321	5223
514.793	5271
515.264	5334
515.736	5394
516.208	5451
516.679	5465
517.151	5553
517.623	5601
518.095	5624
518.567	5651
519.038	5807
519.51	5822
519.982	5876
520.454	5947
520.927	6013
521.399	6052
521.871	6066
522.343	6103
522.815	6224
523.287	6188
523.76	6209
524.232	6332
524.704	6421
525.177	6317
525.649	6359
526.122	6481
526.594	6352
527.067	6482
527.539	6513
528.012	6481
528.484	6476
528.957	6472
529.43	6444
529.903	6450
530.375	6668
530.848	6452
531.321	6533
531.794	6580
532.267	6695
532.74	6522
533.213	6514
533.686	6638
534.159	6599
534.632	6715
535.105	6715
535.578	6854
536.051	6864
536.525	6846
536.998	6829
537.471	7021
537.945	6915
538.418	6958
538.891	7012
539.365	7142
539.838	7164
540.312	7134
540.786	7181
541.259	7232
541.733	7350
542.206	7303
542.68	7170
543.154	7221
543.628	7227
544.101	7351
544.575	7322
545.049	7200
545.523	7387
545.997	7297
546.471	7365
546.945	7365
547.419	7472
547.893	7129
548.367	7211
548.842	7176
549.316	7198
549.79	7214
550.264	7140
550.739	7247
551.213	7281
551.687	7235
552.162	7255
552.636	7189
553.111	7183
553.585	7322
554.06	7142
554.534	7313
555.009	7270
555.484	7373
555.958	7359
556.433	7419
556.908	7553
557.383	7520
557.858	7651
558.333	7659
558.807	7594
559.282	7698
559.757	7873
560.232	7870
560.708	7746
561.183	7769
561.658	7841
562.133	7809
562.608	7731
563.083	8025
563.559	7838
564.034	7852
564.509	7855
564.985	7940
565.46	7896
565.936	7991
566.411	7935
566.887	7804
567.362	7911
567.838	7893
568.313	7934
568.789	7837
569.265	7858
569.74	7914
570.216	7813
570.692	7871
571.168	7856
571.644	7881
572.12	7835
572.596	7866
573.071	7791
573.547	8007
574.024	8133
574.5	8126
574.976	8124
575.452	8242
575.928	8326
576.404	8361
576.881	8560
577.357	8429
577.833	8533
578.31	8766
578.786	8860
579.262	8982
579.739	8903
580.215	9213
580.692	9235
581.169	9127
581.645	9119
582.122	9360
582.598	9332
583.075	9319
583.552	9380
584.029	9379
584.506	9388
584.982	9342
585.459	9526
585.936	9354
586.413	9465
586.89	9627
587.367	9529
587.844	9610
588.321	9521
588.799	9576
589.276	9547
589.753	9693
590.23	9699
590.707	9631
591.185	9646
591.662	9673
592.139	9797
592.617	9881
593.094	9823
593.572	9908
594.049	10036
594.527	10049
595.004	9986
595.482	10219
595.96	10216
596.437	10228
596.915	10415
597.393	10229
597.871	10452
598.349	10365
598.826	10609
599.304	10578
599.782	10711
600.26	10540
600.738	10792
601.216	10761
601.694	10812
602.173	10834
602.651	10962
603.129	10967
603.607	11108
604.085	11143
604.564	11071
605.042	11105
605.52	11112
605.999	11406
606.477	11147
606.956	11088
607.434	11173.5
607.913	11259
608.391	11274
608.87	11212
609.348	10996
609.827	11057
610.306	11172
610.785	11230
611.263	11226
611.742	11132
612.221	10960
612.7	11142
613.179	11216
613.658	11045
614.137	11139
614.616	11177
615.095	10979
615.574	11109
616.053	11116
616.532	10988
617.011	11044
617.491	11105
617.97	11117
618.449	11261
618.928	11345
619.408	11222
619.887	11312
620.367	11417
620.846	11554
621.326	11506
621.805	11623
622.285	11585
622.764	11732
623.244	11769
623.724	11760
624.203	11790
624.683	11542
625.163	11839
625.643	11858
626.123	11753
626.602	11914
627.082	11579
627.562	11609
628.042	11941
628.522	11859
629.002	11815
629.482	11844
629.963	11848
630.443	11800
630.923	11898
631.403	11961
631.883	11811
632.364	11793
632.844	11739
633.324	11792
633.805	11865
634.285	11704
634.766	11620
635.246	11642
635.727	11746
636.207	11797
636.688	11737
637.168	11671
637.649	11526
638.13	11466
638.611	11561
639.091	11575
639.572	11512
640.053	11378
640.534	11448
641.015	11471
641.496	11313
641.977	11475
642.458	11298
642.939	11249
643.42	11322
643.901	11434
644.382	11544
644.863	11494
645.345	11457
645.826	11441
646.307	11479
646.788	11700
647.27	11535
647.751	11569
648.233	11616
648.714	11341
649.196	11668
649.677	11623
650.159	11634
650.64	11498
651.122	11632
651.603	11468
652.085	11624
652.567	11679
653.049	11583
653.53	11515
654.012	11581
654.494	11385
654.976	11527
655.458	11539
655.94	11513
656.422	11665
656.904	11540
657.386	11465
657.868	11555
658.35	11534
658.833	11575
659.315	11559
659.797	11404
660.279	11422
660.762	11552
661.244	11453
661.726	11308
662.209	11245
662.691	11234
663.174	11016
663.656	11139
664.139	11134
664.621	11012
665.104	10878
665.587	10938
666.069	10962
666.552	10945
667.035	10830
667.517	10768
668	10758
668.483	10713
668.966	10682
669.449	10679
669.932	10760
670.415	10939
670.898	10832
671.381	10835
671.864	10880
672.347	10824
672.83	10907
673.313	10910
673.797	10803
674.28	10930
674.763	10931
675.247	10987
675.73	11002
676.213	11114
676.697	11159
677.18	11107
677.664	11082
678.147	11088
678.631	11150
679.114	11239
679.598	11182
680.082	11188
680.565	11154
681.049	11136
681.533	11174
682.017	11333
682.5	11286
682.984	11293
683.468	11214
683.952	11054
684.436	11312
684.92	11237
685.404	11290
685.888	11364
686.372	11272
686.856	11289
687.341	11463
687.825	11397
688.309	11463
688.793	11428
689.278	11231
689.762	11326
690.246	11274
690.731	11359
691.215	11400
691.7	11078
692.184	11168
692.669	11134
693.153	11191
693.638	11096
694.122	11144
694.607	11248
695.092	11086
695.577	11156
696.061	10958
696.546	10967
697.031	10919
697.516	11036
698.001	11016
698.486	10905
698.971	10961
699.456	10763
699.941	10822
700.426	10855
700.911	10979
701.396	10849
701.881	10890
702.366	10803
702.852	10769
703.337	10866
703.822	10887
704.308	10882
704.793	10843
705.278	10809
705.764	10804
706.249	10782
706.735	10857
707.22	10975
707.706	10811
708.191	10929
708.677	10880
709.163	10823
709.648	10958
710.134	11118
710.62	11029
711.106	10979
711.592	11059
712.077	10977
712.563	10734
713.049	10762
713.535	11005
714.021	10925
714.507	10845
714.993	10682
715.479	10788
715.966	10652
716.452	10726
716.938	10789
717.424	10504
717.91	10677
718.397	10503
718.883	10377
719.369	10388
719.856	10350
720.342	10521
720.829	10415
721.315	10450
721.802	10390
722.288	10469
722.775	10171
723.262	9955
723.748	10416
724.235	10354
724.722	10457
725.208	10180
725.695	10132
726.182	10102
726.669	10002
727.156	10113
727.643	10026
728.13	10043
728.617	9956
729.104	9909
729.591	9819
730.078	9914
730.565	9967
731.052	9824
731.539	9830
732.027	9703
732.514	9539
733.001	9621
733.488	9626
733.976	9652
734.463	9666
734.951	9628
735.438	9708
735.926	9531
736.413	9564
736.901	9501
737.388	9661
737.876	9683
738.364	9636
738.851	9644
739.339	9573
739.827	9643
740.314	9425
740.802	9547
741.29	9648
741.778	9552
742.266	9568
742.754	9520
743.242	9540
743.73	9352
744.218	9405
744.706	9390
745.194	9554
745.682	9498
746.17	9503
746.659	9429
747.147	9160
747.635	9265
748.123	9319
748.612	9336
749.1	9303
749.589	9341
750.077	9230
750.566	9134
751.054	9167
751.543	9247
752.031	9113
752.52	9179
753.008	8967
753.497	8907
753.986	8863
754.474	8755
754.963	8805
755.452	8736
755.941	8748
756.43	8773
756.919	8736
757.408	8662
757.896	8653
758.385	8640
758.875	8580
759.364	8566
759.853	8587
760.342	8475
760.831	8643
761.32	8540
761.809	8376
762.299	8432
762.788	8475
763.277	8498
763.767	8429
764.256	8471
764.745	8335
765.235	8415
765.724	8186
766.214	8295
766.703	8312
767.193	8233
767.683	8297
768.172	8148
768.662	8205
769.152	8146
769.641	8151
770.131	7950
770.621	8090
771.111	8068
771.601	8141
772.09	8081
772.58	7944
773.07	7892
773.56	7923
774.05	7774
774.54	7791
775.031	7853
775.521	7859
776.011	7882
776.501	7910
776.991	7718
777.482	7749
777.972	7557
778.462	7606
778.953	7730
779.443	7725
779.933	7718
780.424	7592
780.914	7580
781.405	7559
781.895	7479
782.386	7516
782.877	7550
783.367	7499
783.858	7464
784.349	7460
784.839	7364
785.33	7316
785.821	7232
786.312	7184
786.803	7233
787.293	7309
787.784	7269
788.275	7175
788.766	7067
789.257	7141
789.748	6948
790.24	6890
790.731	6994
791.222	6935
791.713	6962
792.204	6987
792.696	6765
793.187	6801
793.678	6728
794.169	6555
794.661	6730
795.152	6697
795.644	6698
796.135	6724
796.627	6759
797.118	6622
797.61	6533
798.101	6474
798.593	6610
799.085	6545
799.576	6627
800.068	6588
800.56	6590
801.052	6395
801.544	6336
802.035	6337
802.527	6263
803.019	6242
803.511	6251
804.003	6273
804.495	6341
804.987	6284
805.479	6104
805.971	6115
806.464	6116
806.956	5985
807.448	6023
807.94	6082
808.433	6075
808.925	6038
809.417	5967
809.91	5897
810.402	5735
810.894	5779
811.387	5826
811.879	5762
812.372	5823
812.865	5757
813.357	5749
813.85	5665
814.342	5603
814.835	5602
815.328	5626
815.821	5599
816.313	5670
816.806	5754
817.299	5746
817.792	5812
818.285	5728
818.778	5764
819.271	5744
819.764	5629
820.257	5651
820.75	5669
821.243	5719
821.736	5673
822.229	5726
822.722	5715
823.216	5800
