Data from lamp4bck_noballon_dubbel_Subt2__106__906.txt Node

Date: Wed Apr 09 12:19:48 CEST 2025
User: fys-lab-0081
Spectrometer: S04999
Trigger mode: 0
Resolution mode: 1024 pixels
Integration Time (sec): 1.000000E-1
Scans to average: 1
Nonlinearity correction enabled: false
Boxcar width: 0
Baseline correction enabled: true
XAxis mode: Wavelengths
Number of Pixels in Spectrum: 1024
>>>>>Begin Spectral Data<<<<<
336.42	14
336.877	11
337.334	10
337.792	16
338.249	16
338.706	15
339.164	11
339.621	12
340.079	14
340.536	16
340.994	15
341.452	17
341.909	21
342.367	13
342.825	13
343.283	21
343.741	16
344.198	16
344.656	17
345.114	13
345.572	25
346.03	16
346.488	17
346.947	19
347.405	23
347.863	18
348.321	20
348.779	27
349.238	20
349.696	23
350.154	19
350.613	24
351.071	26
351.53	30
351.988	32
352.447	28
352.905	25
353.364	30
353.823	34
354.282	28
354.74	25
355.199	35
355.658	40
356.117	35
356.576	36
357.035	33
357.494	39
357.953	37
358.412	41
358.871	41
359.33	41
359.789	36
360.249	44
360.708	48
361.167	48
361.626	48
362.086	50
362.545	52
363.005	51
363.464	54
363.924	57
364.383	59
364.843	61
365.303	67
365.762	65
366.222	63
366.682	63
367.142	68
367.601	70
368.061	64
368.521	69
368.981	69
369.441	74
369.901	71
370.361	71
370.821	74
371.282	74
371.742	80
372.202	81
372.662	85
373.123	81
373.583	87
374.043	90
374.504	90
374.964	94
375.425	98
375.885	101
376.346	103
376.806	106
377.267	103
377.728	108
378.188	109
378.649	107
379.11	112
379.571	114
380.032	123
380.493	117
380.954	124
381.414	128
381.876	132
382.337	133
382.798	139
383.259	144
383.72	148
384.181	147
384.642	161
385.104	165
385.565	171
386.026	180
386.488	182
386.949	186
387.411	188
387.872	195
388.334	200
388.795	204
389.257	204
389.719	208
390.181	212
390.642	220
391.104	220
391.566	228
392.028	239
392.49	248
392.952	248
393.414	261
393.876	262
394.338	265
394.8	271
395.262	278
395.724	286
396.186	288
396.648	291
397.111	292
397.573	304
398.035	296
398.498	311
398.96	310
399.423	315
399.885	323
400.348	327
400.81	336
401.273	336
401.736	340
402.198	362
402.661	373
403.124	366
403.587	391
404.049	400
404.512	409
404.975	413
405.438	407
405.901	422
406.364	419
406.827	425
407.29	418
407.754	418
408.217	421
408.68	421
409.143	432
409.607	433
410.07	437
410.533	443
410.997	453
411.46	455
411.924	464
412.387	469
412.851	484
413.314	498
413.778	504
414.242	508
414.705	539
415.169	530
415.633	533
416.097	535
416.561	539
417.024	554
417.488	534
417.952	545
418.416	533
418.88	537
419.344	539
419.809	540
420.273	554
420.737	544
421.201	557
421.665	570
422.13	564
422.594	586
423.059	595
423.523	602
423.987	605
424.452	633
424.916	651
425.381	673
425.846	674
426.31	683
426.775	695
427.24	703
427.704	697
428.169	699
428.634	703
429.099	695
429.564	692
430.029	707
430.494	700
430.959	701
431.424	696
431.889	718
432.354	732
432.819	717
433.284	743
433.75	745
434.215	773
434.68	774
435.146	796
435.611	822
436.077	849
436.542	866
437.008	899
437.473	918
437.939	919
438.404	935
438.87	957
439.336	937
439.801	946
440.267	959
440.733	968
441.199	977
441.665	971
442.131	994
442.596	975
443.062	1009
443.529	1041
443.995	1051
444.461	1057
444.927	1102
445.393	1103
445.859	1152
446.325	1169
446.792	1234
447.258	1231
447.724	1281
448.191	1337
448.657	1342
449.124	1389
449.59	1369
450.057	1449
450.523	1475
450.99	1497
451.457	1491
451.923	1520
452.39	1501
452.857	1537
453.324	1518
453.791	1543
454.257	1561
454.724	1572
455.191	1560
455.658	1560
456.125	1617
456.592	1572
457.059	1625
457.527	1638
457.994	1689
458.461	1691
458.928	1720
459.396	1723
459.863	1775
460.33	1778
460.798	1791
461.265	1820
461.732	1810
462.2	1843
462.668	1836
463.135	1861
463.603	1809
464.07	1867
464.538	1793
465.006	1847
465.474	1814
465.941	1811
466.409	1820
466.877	1796
467.345	1828
467.813	1799
468.281	1837
468.749	1841
469.217	1832
469.685	1873
470.153	1898
470.621	1878
471.09	1898
471.558	1988
472.026	1961
472.494	2021
472.963	2037
473.431	2081
473.9	2129
474.368	2176
474.837	2197
475.305	2247
475.774	2295
476.242	2352
476.711	2377
477.18	2444
477.648	2426
478.117	2461
478.586	2450
479.055	2437
479.524	2452
479.993	2441
480.462	2431
480.93	2424
481.399	2447
481.869	2457
482.338	2405
482.807	2455
483.276	2452
483.745	2435
484.214	2496
484.684	2527
485.153	2516
485.622	2524
486.092	2594
486.561	2551
487.031	2610
487.5	2674
487.97	2663
488.439	2711
488.909	2782
489.378	2892
489.848	2883
490.318	2962
490.787	3105
491.257	3149
491.727	3170
492.197	3236
492.667	3227
493.137	3265
493.607	3293
494.077	3340
494.547	3303
495.017	3287
495.487	3369
495.957	3440
496.427	3354
496.897	3356
497.368	3409
497.838	3360
498.308	3384
498.779	3399
499.249	3414
499.719	3415
500.19	3442
500.66	3475
501.131	3478
501.602	3531
502.072	3530
502.543	3569
503.014	3667
503.484	3644
503.955	3751
504.426	3848
504.897	3856
505.368	3950
505.838	4015
506.309	4076
506.78	4227
507.251	4347
507.722	4408
508.194	4516
508.665	4574
509.136	4568
509.607	4684
510.078	4781
510.549	4842
511.021	4970
511.492	4941
511.964	5011
512.435	5088
512.906	5030
513.378	5063
513.849	5192
514.321	5206
514.793	5234
515.264	5291
515.736	5355
516.208	5411
516.679	5439
517.151	5520
517.623	5559
518.095	5596
518.567	5613
519.038	5767
519.51	5790
519.982	5850
520.454	5912
520.927	5972
521.399	6025
521.871	6031
522.343	6059
522.815	6184
523.287	6161
523.76	6169
524.232	6295
524.704	6387
525.177	6282
525.649	6327
526.122	6443
526.594	6316
527.067	6454
527.539	6472
528.012	6443
528.484	6432
528.957	6443
529.43	6411
529.903	6419
530.375	6626
530.848	6417
531.321	6490
531.794	6534
532.267	6656
532.74	6483
533.213	6470
533.686	6596
534.159	6566
534.632	6683
535.105	6670
535.578	6805
536.051	6823
536.525	6799
536.998	6792
537.471	6980
537.945	6877
538.418	6917
538.891	6962
539.365	7095
539.838	7121
540.312	7098
540.786	7136
541.259	7199
541.733	7301
542.206	7252
542.68	7130
543.154	7179
543.628	7182
544.101	7303
544.575	7282
545.049	7161
545.523	7326
545.997	7246
546.471	7319
546.945	7312
547.419	7437
547.893	7071
548.367	7172
548.842	7128
549.316	7143
549.79	7178
550.264	7101
550.739	7190
551.213	7248
551.687	7193
552.162	7215
552.636	7149
553.111	7136
553.585	7273
554.06	7095
554.534	7260
555.009	7231
555.484	7329
555.958	7331
556.433	7362
556.908	7512
557.383	7476
557.858	7616
558.333	7615
558.807	7550
559.282	7661
559.757	7823
560.232	7828
560.708	7691
561.183	7725
561.658	7800
562.133	7759
562.608	7691
563.083	7970
563.559	7797
564.034	7793
564.509	7810
564.985	7890
565.46	7856
565.936	7954
566.411	7883
566.887	7767
567.362	7875
567.838	7845
568.313	7882
568.789	7783
569.265	7823
569.74	7870
570.216	7769
570.692	7827
571.168	7805
571.644	7837
572.12	7787
572.596	7821
573.071	7741
573.547	7959
574.024	8091
574.5	8081
574.976	8077
575.452	8191
575.928	8277
576.404	8314
576.881	8518
577.357	8384
577.833	8474
578.31	8710
578.786	8809
579.262	8927
579.739	8850
580.215	9153
580.692	9185
581.169	9078
581.645	9071
582.122	9309
582.598	9268
583.075	9266
583.552	9334
584.029	9326
584.506	9316
584.982	9278
585.459	9470
585.936	9302
586.413	9404
586.89	9569
587.367	9468
587.844	9556
588.321	9471
588.799	9520
589.276	9498
589.753	9656
590.23	9640
590.707	9567
591.185	9594
591.662	9614
592.139	9746
592.617	9818
593.094	9761
593.572	9857
594.049	9988
594.527	9996
595.004	9929
595.482	10163
595.96	10155
596.437	10173
596.915	10362
597.393	10168
597.871	10401
598.349	10315
598.826	10546
599.304	10523
599.782	10658
600.26	10485
600.738	10732
601.216	10699
601.694	10746
602.173	10769
602.651	10905
603.129	10911
603.607	11038
604.085	11070
604.564	11017
605.042	11034
605.52	11048
605.999	11346
606.477	11092
606.956	11041
607.434	11125
607.913	11209
608.391	11214
608.87	11136
609.348	10931
609.827	10996
610.306	11114
610.785	11162
611.263	11169
611.742	11069
612.221	10911
612.7	11082
613.179	11157
613.658	10986
614.137	11064
614.616	11109
615.095	10915
615.574	11052
616.053	11051
616.532	10926
617.011	10984
617.491	11053
617.97	11058
618.449	11194
618.928	11271
619.408	11159
619.887	11254
620.367	11350
620.846	11493
621.326	11431
621.805	11571
622.285	11523
622.764	11659
623.244	11715
623.724	11694
624.203	11712
624.683	11480
625.163	11784
625.643	11790
626.123	11682
626.602	11859
627.082	11541
627.562	11549
628.042	11867
628.522	11790
629.002	11750
629.482	11781
629.963	11784
630.443	11732
630.923	11826
631.403	11882
631.883	11751
632.364	11735
632.844	11662
633.324	11752
633.805	11792
634.285	11638
634.766	11559
635.246	11579
635.727	11681
636.207	11728
636.688	11687
637.168	11615
637.649	11447
638.13	11391
638.611	11506
639.091	11523
639.572	11441
640.053	11304
640.534	11392
641.015	11425
641.496	11256
641.977	11404
642.458	11232
642.939	11193
643.42	11269
643.901	11373
644.382	11470
644.863	11451
645.345	11401
645.826	11378
646.307	11414
646.788	11638
647.27	11470
647.751	11505
648.233	11550
648.714	11282
649.196	11613
649.677	11571
650.159	11587
650.64	11441
651.122	11570
651.603	11407
652.085	11575
652.567	11626
653.049	11523
653.53	11446
654.012	11533
654.494	11324
654.976	11461
655.458	11492
655.94	11457
656.422	11598
656.904	11480
657.386	11418
657.868	11489
658.35	11460
658.833	11518
659.315	11497
659.797	11350
660.279	11368
660.762	11482
661.244	11389
661.726	11236
662.209	11187
662.691	11173
663.174	10968
663.656	11072
664.139	11101
664.621	10983
665.104	10827
665.587	10881
666.069	10908
666.552	10894
667.035	10766
667.517	10732
668	10719
668.483	10662
668.966	10628
669.449	10637
669.932	10709
670.415	10865
670.898	10783
671.381	10779
671.864	10814
672.347	10784
672.83	10838
673.313	10854
673.797	10741
674.28	10863
674.763	10886
675.247	10928
675.73	10945
676.213	11057
676.697	11117
677.18	11037
677.664	11032
678.147	11034
678.631	11091
679.114	11186
679.598	11113
680.082	11125
680.565	11087
681.049	11080
681.533	11132
682.017	11276
682.5	11240
682.984	11228
683.468	11147
683.952	11015
684.436	11259
684.92	11182
685.404	11238
685.888	11312
686.372	11213
686.856	11227
687.341	11410
687.825	11323
688.309	11418
688.793	11363
689.278	11176
689.762	11261
690.246	11214
690.731	11306
691.215	11327
691.7	11029
692.184	11106
692.669	11070
693.153	11137
693.638	11040
694.122	11098
694.607	11196
695.092	11035
695.577	11096
696.061	10911
696.546	10906
697.031	10872
697.516	10983
698.001	10969
698.486	10837
698.971	10906
699.456	10691
699.941	10768
700.426	10803
700.911	10910
701.396	10799
701.881	10815
702.366	10747
702.852	10721
703.337	10810
703.822	10825
704.308	10818
704.793	10795
705.278	10750
705.764	10744
706.249	10715
706.735	10799
707.22	10929
707.706	10753
708.191	10875
708.677	10824
709.163	10769
709.648	10910
710.134	11059
710.62	10973
711.106	10929
711.592	10998
712.077	10927
712.563	10683
713.049	10707
713.535	10952
714.021	10872
714.507	10811
714.993	10636
715.479	10744
715.966	10604
716.452	10666
716.938	10738
717.424	10432
717.91	10621
718.397	10445
718.883	10333
719.369	10342
719.856	10287
720.342	10477
720.829	10360
721.315	10399
721.802	10343
722.288	10420
722.775	10115
723.262	9894
723.748	10367
724.235	10300
724.722	10395
725.208	10125
725.695	10084
726.182	10047
726.669	9961
727.156	10069
727.643	9965
728.13	9988
728.617	9895
729.104	9868
729.591	9771
730.078	9871
730.565	9919
731.052	9758
731.539	9778
732.027	9642
732.514	9492
733.001	9589
733.488	9568
733.976	9611
734.463	9619
734.951	9576
735.438	9657
735.926	9491
736.413	9521
736.901	9456
737.388	9607
737.876	9629
738.364	9573
738.851	9598
739.339	9532
739.827	9610
740.314	9380
740.802	9510
741.29	9601
741.778	9519
742.266	9515
742.754	9479
743.242	9492
743.73	9307
744.218	9344
744.706	9330
745.194	9512
745.682	9454
746.17	9453
746.659	9380
747.147	9119
747.635	9212
748.123	9269
748.612	9291
749.1	9254
749.589	9307
750.077	9183
750.566	9089
751.054	9133
751.543	9214
752.031	9066
752.52	9127
753.008	8923
753.497	8863
753.986	8811
754.474	8707
754.963	8773
755.452	8681
755.941	8696
756.43	8714
756.919	8696
757.408	8612
757.896	8605
758.385	8609
758.875	8536
759.364	8518
759.853	8536
760.342	8428
760.831	8598
761.32	8502
761.809	8340
762.299	8385
762.788	8434
763.277	8452
763.767	8387
764.256	8420
764.745	8289
765.235	8374
765.724	8139
766.214	8256
766.703	8267
767.193	8195
767.683	8248
768.172	8100
768.662	8162
769.152	8097
769.641	8103
770.131	7912
770.621	8054
771.111	8020
771.601	8096
772.09	8050
772.58	7893
773.07	7861
773.56	7880
774.05	7725
774.54	7764
775.031	7799
775.521	7824
776.011	7839
776.501	7869
776.991	7683
777.482	7718
777.972	7521
778.462	7568
778.953	7689
779.443	7691
779.933	7672
780.424	7546
780.914	7534
781.405	7519
781.895	7439
782.386	7480
782.877	7514
783.367	7451
783.858	7426
784.349	7427
784.839	7329
785.33	7280
785.821	7190
786.312	7143
786.803	7210
787.293	7277
787.784	7228
788.275	7141
788.766	7030
789.257	7098
789.748	6907
790.24	6849
790.731	6940
791.222	6899
791.713	6929
792.204	6952
792.696	6730
793.187	6767
793.678	6692
794.169	6533
794.661	6691
795.152	6656
795.644	6680
796.135	6687
796.627	6716
797.118	6579
797.61	6500
798.101	6439
798.593	6575
799.085	6518
799.576	6597
800.068	6555
800.56	6571
801.052	6365
801.544	6300
802.035	6294
802.527	6225
803.019	6214
803.511	6217
804.003	6247
804.495	6302
804.987	6243
805.479	6084
805.971	6084
806.464	6075
806.956	5949
807.448	5997
807.94	6049
808.433	6058
808.925	6010
809.417	5927
809.91	5871
810.402	5704
810.894	5751
811.387	5797
811.879	5731
812.372	5786
812.865	5735
813.357	5725
813.85	5640
814.342	5578
814.835	5575
815.328	5598
815.821	5566
816.313	5644
816.806	5721
817.299	5723
817.792	5788
818.285	5698
818.778	5735
819.271	5699
819.764	5604
820.257	5608
820.75	5636
821.243	5688
821.736	5649
822.229	5697
822.722	5675
823.216	5764
