Data from lamp4bck_noballon_dubbel_Subt2__141__941.txt Node

Date: Wed Apr 09 12:19:52 CEST 2025
User: fys-lab-0081
Spectrometer: S04999
Trigger mode: 0
Resolution mode: 1024 pixels
Integration Time (sec): 1.000000E-1
Scans to average: 1
Nonlinearity correction enabled: false
Boxcar width: 0
Baseline correction enabled: true
XAxis mode: Wavelengths
Number of Pixels in Spectrum: 1024
>>>>>Begin Spectral Data<<<<<
336.42	10
336.877	15
337.334	14
337.792	11
338.249	15
338.706	11
339.164	16
339.621	15
340.079	15
340.536	18
340.994	15
341.452	19
341.909	19
342.367	13
342.825	12
343.283	22
343.741	13
344.198	15
344.656	17
345.114	17
345.572	20
346.03	20
346.488	19
346.947	21
347.405	20
347.863	19
348.321	20
348.779	26
349.238	21
349.696	28
350.154	25
350.613	24
351.071	27
351.53	30
351.988	29
352.447	28
352.905	29
353.364	32
353.823	36
354.282	34
354.74	31
355.199	39
355.658	40
356.117	35
356.576	32
357.035	34
357.494	35
357.953	39
358.412	39
358.871	40
359.33	42
359.789	40
360.249	47
360.708	48
361.167	46
361.626	48
362.086	48
362.545	50
363.005	51
363.464	55
363.924	59
364.383	57
364.843	63
365.303	60
365.762	68
366.222	69
366.682	64
367.142	66
367.601	68
368.061	69
368.521	73
368.981	65
369.441	77
369.901	77
370.361	73
370.821	71
371.282	77
371.742	81
372.202	83
372.662	87
373.123	81
373.583	82
374.043	91
374.504	89
374.964	92
375.425	94
375.885	97
376.346	105
376.806	104
377.267	98
377.728	109
378.188	108
378.649	110
379.11	114
379.571	110
380.032	123
380.493	118
380.954	125
381.414	125
381.876	130
382.337	135
382.798	141
383.259	146
383.72	148
384.181	149
384.642	156
385.104	168
385.565	173
386.026	181
386.488	185
386.949	184
387.411	188
387.872	191
388.334	193
388.795	198
389.257	210
389.719	208
390.181	213
390.642	218
391.104	222
391.566	230
392.028	236
392.49	250
392.952	247
393.414	261
393.876	266
394.338	268
394.8	267
395.262	269
395.724	286
396.186	289
396.648	290
397.111	294
397.573	303
398.035	301
398.498	307
398.96	309
399.423	313
399.885	323
400.348	326
400.81	334
401.273	335
401.736	343
402.198	365
402.661	371
403.124	367
403.587	390
404.049	397
404.512	404
404.975	410
405.438	406
405.901	419
406.364	420
406.827	419
407.29	419
407.754	416
408.217	419
408.68	420
409.143	439
409.607	438
410.07	434
410.533	439
410.997	444
411.46	455
411.924	461
412.387	468
412.851	484
413.314	500
413.778	501
414.242	504
414.705	537
415.169	528
415.633	535
416.097	531
416.561	540
417.024	553
417.488	534
417.952	544
418.416	534
418.88	537
419.344	533
419.809	538
420.273	558
420.737	549
421.201	558
421.665	571
422.13	570
422.594	583
423.059	596
423.523	605
423.987	604
424.452	635
424.916	651
425.381	674
425.846	669
426.31	683
426.775	693
427.24	706
427.704	693
428.169	699
428.634	704
429.099	697
429.564	690
430.029	706
430.494	702
430.959	706
431.424	699
431.889	720
432.354	731
432.819	713
433.284	746
433.75	750
434.215	771
434.68	772
435.146	790
435.611	823
436.077	854
436.542	868
437.008	905
437.473	915
437.939	916
438.404	938
438.87	956
439.336	940
439.801	943
440.267	961
440.733	971
441.199	974
441.665	973
442.131	997
442.596	971
443.062	1012
443.529	1047
443.995	1052
444.461	1059
444.927	1100
445.393	1104
445.859	1152
446.325	1168
446.792	1236
447.258	1232
447.724	1279
448.191	1331
448.657	1345
449.124	1382
449.59	1373
450.057	1448
450.523	1479
450.99	1497
451.457	1500
451.923	1522
452.39	1494
452.857	1534
453.324	1515
453.791	1544
454.257	1559
454.724	1570
455.191	1559
455.658	1567
456.125	1609
456.592	1578
457.059	1624
457.527	1636
457.994	1693
458.461	1699
458.928	1716
459.396	1716
459.863	1780
460.33	1773
460.798	1785
461.265	1815
461.732	1806
462.2	1835
462.668	1835
463.135	1862
463.603	1807
464.07	1866
464.538	1792
465.006	1842
465.474	1808
465.941	1810
466.409	1810
466.877	1790
467.345	1834
467.813	1800
468.281	1837
468.749	1844
469.217	1835
469.685	1870
470.153	1901
470.621	1880
471.09	1895
471.558	1986
472.026	1955
472.494	2020
472.963	2036
473.431	2081
473.9	2121
474.368	2178
474.837	2200
475.305	2245
475.774	2294
476.242	2353
476.711	2380
477.18	2444
477.648	2416
478.117	2459
478.586	2444
479.055	2431
479.524	2454
479.993	2446
480.462	2428
480.93	2419
481.399	2449
481.869	2465
482.338	2413
482.807	2455
483.276	2452
483.745	2428
484.214	2496
484.684	2532
485.153	2515
485.622	2523
486.092	2590
486.561	2548
487.031	2611
487.5	2663
487.97	2662
488.439	2710
488.909	2785
489.378	2889
489.848	2883
490.318	2964
490.787	3106
491.257	3143
491.727	3169
492.197	3235
492.667	3228
493.137	3268
493.607	3291
494.077	3336
494.547	3300
495.017	3292
495.487	3375
495.957	3434
496.427	3353
496.897	3354
497.368	3405
497.838	3344
498.308	3381
498.779	3395
499.249	3413
499.719	3409
500.19	3440
500.66	3476
501.131	3480
501.602	3536
502.072	3533
502.543	3566
503.014	3673
503.484	3638
503.955	3741
504.426	3855
504.897	3859
505.368	3953
505.838	4019
506.309	4074
506.78	4228
507.251	4339
507.722	4411
508.194	4508
508.665	4577
509.136	4564
509.607	4686
510.078	4777
510.549	4843
511.021	4970
511.492	4928
511.964	5016
512.435	5088
512.906	5028
513.378	5068
513.849	5188
514.321	5198
514.793	5230
515.264	5284
515.736	5361
516.208	5410
516.679	5435
517.151	5509
517.623	5570
518.095	5595
518.567	5612
519.038	5766
519.51	5790
519.982	5842
520.454	5915
520.927	5972
521.399	6019
521.871	6030
522.343	6055
522.815	6179
523.287	6155
523.76	6164
524.232	6293
524.704	6391
525.177	6276
525.649	6314
526.122	6438
526.594	6303
527.067	6435
527.539	6465
528.012	6437
528.484	6435
528.957	6440
529.43	6402
529.903	6408
530.375	6621
530.848	6404
531.321	6490
531.794	6540
532.267	6656
532.74	6481
533.213	6462
533.686	6595
534.159	6574
534.632	6669
535.105	6666
535.578	6808
536.051	6810
536.525	6782
536.998	6778
537.471	6966
537.945	6871
538.418	6918
538.891	6962
539.365	7092
539.838	7117
540.312	7090
540.786	7135
541.259	7190
541.733	7292
542.206	7258
542.68	7129
543.154	7169
543.628	7163
544.101	7307
544.575	7289
545.049	7151
545.523	7326
545.997	7256
546.471	7304
546.945	7311
547.419	7438
547.893	7093
548.367	7166
548.842	7127
549.316	7149
549.79	7168
550.264	7098
550.739	7206
551.213	7247
551.687	7184
552.162	7210
552.636	7148
553.111	7138
553.585	7270
554.06	7092
554.534	7272
555.009	7227
555.484	7328
555.958	7327
556.433	7362
556.908	7520
557.383	7472
557.858	7606
558.333	7617
558.807	7551
559.282	7647
559.757	7821
560.232	7822
560.708	7692
561.183	7720
561.658	7799
562.133	7758
562.608	7690
563.083	7966
563.559	7785
564.034	7795
564.509	7800
564.985	7885
565.46	7856
565.936	7952
566.411	7881
566.887	7758
567.362	7870
567.838	7849
568.313	7887
568.789	7772
569.265	7812
569.74	7877
570.216	7763
570.692	7829
571.168	7797
571.644	7838
572.12	7802
572.596	7815
573.071	7761
573.547	7964
574.024	8081
574.5	8068
574.976	8085
575.452	8183
575.928	8277
576.404	8310
576.881	8523
577.357	8382
577.833	8485
578.31	8708
578.786	8809
579.262	8941
579.739	8853
580.215	9154
580.692	9183
581.169	9070
581.645	9067
582.122	9305
582.598	9267
583.075	9275
583.552	9337
584.029	9315
584.506	9326
584.982	9273
585.459	9467
585.936	9306
586.413	9408
586.89	9587
587.367	9469
587.844	9552
588.321	9461
588.799	9520
589.276	9496
589.753	9640
590.23	9638
590.707	9560
591.185	9585
591.662	9618
592.139	9736
592.617	9821
593.094	9771
593.572	9844
594.049	9958
594.527	9999
595.004	9912
595.482	10159
595.96	10150
596.437	10169
596.915	10360
597.393	10180
597.871	10406
598.349	10317
598.826	10545
599.304	10515
599.782	10661
600.26	10478
600.738	10724
601.216	10704
601.694	10746
602.173	10768
602.651	10904
603.129	10901
603.607	11038
604.085	11065
604.564	11022
605.042	11051
605.52	11055
605.999	11337
606.477	11087
606.956	11029
607.434	11112.5
607.913	11196
608.391	11220
608.87	11141
609.348	10936
609.827	10992
610.306	11112
610.785	11164
611.263	11154
611.742	11053
612.221	10905
612.7	11073
613.179	11156
613.658	10973
614.137	11072
614.616	11128
615.095	10933
615.574	11041
616.053	11058
616.532	10913
617.011	11000
617.491	11051
617.97	11051
618.449	11206
618.928	11279
619.408	11169
619.887	11258
620.367	11344
620.846	11480
621.326	11433
621.805	11572
622.285	11539
622.764	11672
623.244	11718
623.724	11714
624.203	11716
624.683	11476
625.163	11769
625.643	11793
626.123	11693
626.602	11853
627.082	11544
627.562	11551
628.042	11883
628.522	11780
629.002	11748
629.482	11788
629.963	11794
630.443	11746
630.923	11831
631.403	11886
631.883	11743
632.364	11735
632.844	11663
633.324	11727
633.805	11796
634.285	11650
634.766	11562
635.246	11588
635.727	11693
636.207	11724
636.688	11682
637.168	11627
637.649	11467
638.13	11402
638.611	11504
639.091	11516
639.572	11443
640.053	11314
640.534	11401
641.015	11434
641.496	11253
641.977	11404
642.458	11234
642.939	11194
643.42	11275
643.901	11378
644.382	11494
644.863	11432
645.345	11403
645.826	11387
646.307	11420
646.788	11638
647.27	11467
647.751	11502
648.233	11553
648.714	11293
649.196	11605
649.677	11559
650.159	11586
650.64	11432
651.122	11572
651.603	11404
652.085	11561
652.567	11632
653.049	11508
653.53	11449
654.012	11521
654.494	11342
654.976	11469
655.458	11492
655.94	11452
656.422	11604
656.904	11482
657.386	11415
657.868	11501
658.35	11466
658.833	11522
659.315	11487
659.797	11349
660.279	11353
660.762	11487
661.244	11386
661.726	11240
662.209	11183
662.691	11172
663.174	10961
663.656	11073
664.139	11094
664.621	10960
665.104	10827
665.587	10884
666.069	10919
666.552	10884
667.035	10774
667.517	10733
668	10728
668.483	10676
668.966	10632
669.449	10623
669.932	10730
670.415	10881
670.898	10780
671.381	10784
671.864	10828
672.347	10786
672.83	10845
673.313	10842
673.797	10752
674.28	10861
674.763	10859
675.247	10942
675.73	10955
676.213	11050
676.697	11108
677.18	11045
677.664	11022
678.147	11030
678.631	11084
679.114	11181
679.598	11111
680.082	11136
680.565	11104
681.049	11092
681.533	11136
682.017	11282
682.5	11240
682.984	11240
683.468	11153
683.952	11002
684.436	11254
684.92	11172
685.404	11228
685.888	11317
686.372	11208
686.856	11226
687.341	11400
687.825	11344
688.309	11431
688.793	11368
689.278	11180
689.762	11268
690.246	11226
690.731	11308
691.215	11340
691.7	11042
692.184	11115
692.669	11090
693.153	11132
693.638	11060
694.122	11095
694.607	11205
695.092	11039
695.577	11088
696.061	10902
696.546	10899
697.031	10867
697.516	10978
698.001	10974
698.486	10851
698.971	10909
699.456	10703
699.941	10770
700.426	10812
700.911	10913
701.396	10789
701.881	10825
702.366	10739
702.852	10713
703.337	10831
703.822	10827
704.308	10810
704.793	10793
705.278	10749
705.764	10742
706.249	10722
706.735	10811
707.22	10924
707.706	10764
708.191	10874
708.677	10832
709.163	10775
709.648	10910
710.134	11062
710.62	10964
711.106	10927
711.592	10998
712.077	10935
712.563	10688
713.049	10709
713.535	10953
714.021	10882
714.507	10793
714.993	10640
715.479	10745
715.966	10608
716.452	10667
716.938	10737
717.424	10454
717.91	10635
718.397	10444
718.883	10331
719.369	10337
719.856	10291
720.342	10462
720.829	10363
721.315	10402
721.802	10344
722.288	10424
722.775	10118
723.262	9907
723.748	10369
724.235	10294
724.722	10408
725.208	10126
725.695	10085
726.182	10056
726.669	9961
727.156	10072
727.643	9984
728.13	9996
728.617	9897
729.104	9861
729.591	9775
730.078	9881
730.565	9925
731.052	9767
731.539	9783
732.027	9648
732.514	9491
733.001	9595
733.488	9586
733.976	9608
734.463	9626
734.951	9572
735.438	9644
735.926	9481
736.413	9523
736.901	9454
737.388	9617
737.876	9640
738.364	9582
738.851	9605
739.339	9533
739.827	9611
740.314	9382
740.802	9510
741.29	9610
741.778	9510
742.266	9517
742.754	9476
743.242	9498
743.73	9307
744.218	9360
744.706	9337
745.194	9504
745.682	9463
746.17	9469
746.659	9378
747.147	9123
747.635	9205
748.123	9281
748.612	9290
749.1	9255
749.589	9304
750.077	9178
750.566	9097
751.054	9125
751.543	9207
752.031	9064
752.52	9120
753.008	8925
753.497	8864
753.986	8818
754.474	8705
754.963	8778
755.452	8683
755.941	8707
756.43	8731
756.919	8692
757.408	8619
757.896	8612
758.385	8608
758.875	8541
759.364	8528
759.853	8549
760.342	8433
760.831	8605
761.32	8507
761.809	8336
762.299	8397
762.788	8430
763.277	8463
763.767	8384
764.256	8427
764.745	8299
765.235	8370
765.724	8128
766.214	8254
766.703	8274
767.193	8191
767.683	8257
768.172	8111
768.662	8171
769.152	8098
769.641	8117
770.131	7918
770.621	8043
771.111	8038
771.601	8106
772.09	8054
772.58	7907
773.07	7869
773.56	7883
774.05	7735
774.54	7757
775.031	7804
775.521	7820
776.011	7843
776.501	7875
776.991	7679
777.482	7714
777.972	7529
778.462	7569
778.953	7700
779.443	7704
779.933	7684
780.424	7551
780.914	7546
781.405	7513
781.895	7455
782.386	7486
782.877	7524
783.367	7463
783.858	7426
784.349	7425
784.839	7325
785.33	7277
785.821	7206
786.312	7143
786.803	7208
787.293	7276
787.784	7232
788.275	7152
788.766	7037
789.257	7101
789.748	6909
790.24	6862
790.731	6960
791.222	6903
791.713	6927
792.204	6955
792.696	6750
793.187	6764
793.678	6691
794.169	6531
794.661	6687
795.152	6666
795.644	6681
796.135	6696
796.627	6714
797.118	6586
797.61	6503
798.101	6449
798.593	6572
799.085	6521
799.576	6594
800.068	6553
800.56	6565
801.052	6362
801.544	6292
802.035	6304
802.527	6225
803.019	6218
803.511	6222
804.003	6241
804.495	6303
804.987	6248
805.479	6088
805.971	6094
806.464	6087
806.956	5956
807.448	6002
807.94	6050
808.433	6051
808.925	6013
809.417	5931
809.91	5875
810.402	5703
810.894	5750
811.387	5805
811.879	5744
812.372	5792
812.865	5738
813.357	5722
813.85	5651
814.342	5582
814.835	5565
815.328	5607
815.821	5570
816.313	5650
816.806	5724
817.299	5717
817.792	5799
818.285	5703
818.778	5747
819.271	5705
819.764	5604
820.257	5620
820.75	5640
821.243	5685
821.736	5654
822.229	5705
822.722	5683
823.216	5770
