Data from lamp4bck_noballon_dubbel_Subt2__158__958.txt Node

Date: Wed Apr 09 12:19:54 CEST 2025
User: fys-lab-0081
Spectrometer: S04999
Trigger mode: 0
Resolution mode: 1024 pixels
Integration Time (sec): 1.000000E-1
Scans to average: 1
Nonlinearity correction enabled: false
Boxcar width: 0
Baseline correction enabled: true
XAxis mode: Wavelengths
Number of Pixels in Spectrum: 1024
>>>>>Begin Spectral Data<<<<<
336.42	9
336.877	15
337.334	13
337.792	11
338.249	14
338.706	14
339.164	14
339.621	14
340.079	14
340.536	16
340.994	19
341.452	16
341.909	15
342.367	19
342.825	11
343.283	20
343.741	18
344.198	18
344.656	15
345.114	17
345.572	18
346.03	16
346.488	15
346.947	22
347.405	25
347.863	17
348.321	22
348.779	29
349.238	22
349.696	28
350.154	23
350.613	24
351.071	26
351.53	28
351.988	32
352.447	31
352.905	28
353.364	32
353.823	32
354.282	36
354.74	26
355.199	34
355.658	42
356.117	31
356.576	35
357.035	34
357.494	41
357.953	37
358.412	40
358.871	40
359.33	41
359.789	42
360.249	44
360.708	46
361.167	52
361.626	48
362.086	50
362.545	50
363.005	52
363.464	55
363.924	56
364.383	56
364.843	61
365.303	65
365.762	68
366.222	69
366.682	63
367.142	73
367.601	71
368.061	68
368.521	71
368.981	68
369.441	78
369.901	74
370.361	75
370.821	72
371.282	77
371.742	80
372.202	80
372.662	84
373.123	83
373.583	84
374.043	89
374.504	87
374.964	92
375.425	95
375.885	98
376.346	107
376.806	107
377.267	105
377.728	110
378.188	112
378.649	112
379.11	112
379.571	107
380.032	119
380.493	124
380.954	128
381.414	123
381.876	130
382.337	132
382.798	140
383.259	145
383.72	149
384.181	152
384.642	158
385.104	164
385.565	169
386.026	178
386.488	185
386.949	184
387.411	190
387.872	193
388.334	199
388.795	205
389.257	204
389.719	204
390.181	210
390.642	220
391.104	221
391.566	227
392.028	239
392.49	249
392.952	249
393.414	257
393.876	266
394.338	269
394.8	269
395.262	269
395.724	288
396.186	290
396.648	293
397.111	289
397.573	304
398.035	297
398.498	307
398.96	311
399.423	314
399.885	319
400.348	324
400.81	340
401.273	340
401.736	338
402.198	359
402.661	370
403.124	368
403.587	386
404.049	395
404.512	404
404.975	416
405.438	405
405.901	418
406.364	419
406.827	424
407.29	416
407.754	417
408.217	421
408.68	422
409.143	434
409.607	435
410.07	436
410.533	437
410.997	448
411.46	454
411.924	466
412.387	469
412.851	482
413.314	499
413.778	503
414.242	511
414.705	536
415.169	525
415.633	533
416.097	532
416.561	544
417.024	556
417.488	534
417.952	545
418.416	532
418.88	540
419.344	532
419.809	538
420.273	557
420.737	541
421.201	554
421.665	573
422.13	570
422.594	581
423.059	596
423.523	606
423.987	609
424.452	635
424.916	653
425.381	676
425.846	673
426.31	687
426.775	694
427.24	706
427.704	693
428.169	699
428.634	704
429.099	695
429.564	692
430.029	710
430.494	700
430.959	709
431.424	697
431.889	716
432.354	728
432.819	718
433.284	748
433.75	747
434.215	775
434.68	775
435.146	794
435.611	826
436.077	856
436.542	867
437.008	900
437.473	917
437.939	917
438.404	938
438.87	955
439.336	940
439.801	941
440.267	962
440.733	976
441.199	968
441.665	978
442.131	996
442.596	972
443.062	1011
443.529	1050
443.995	1048
444.461	1060
444.927	1103
445.393	1101
445.859	1146
446.325	1172
446.792	1231
447.258	1234
447.724	1281
448.191	1334
448.657	1341
449.124	1381
449.59	1374
450.057	1449
450.523	1477
450.99	1502
451.457	1494
451.923	1519
452.39	1496
452.857	1539
453.324	1518
453.791	1537
454.257	1556
454.724	1570
455.191	1557
455.658	1568
456.125	1616
456.592	1578
457.059	1624
457.527	1631
457.994	1686
458.461	1697
458.928	1724
459.396	1719
459.863	1784
460.33	1778
460.798	1792
461.265	1824
461.732	1805
462.2	1844
462.668	1838
463.135	1855
463.603	1806
464.07	1872
464.538	1794
465.006	1851
465.474	1817
465.941	1813
466.409	1813
466.877	1801
467.345	1826
467.813	1801
468.281	1836
468.749	1844
469.217	1828
469.685	1869
470.153	1899
470.621	1880
471.09	1891
471.558	1989
472.026	1962
472.494	2016
472.963	2035
473.431	2082
473.9	2125
474.368	2183
474.837	2205
475.305	2249
475.774	2300
476.242	2344
476.711	2381
477.18	2443
477.648	2421
478.117	2462
478.586	2450
479.055	2444
479.524	2463
479.993	2442
480.462	2424
480.93	2417
481.399	2443
481.869	2465
482.338	2416
482.807	2451
483.276	2452
483.745	2433
484.214	2496
484.684	2532
485.153	2509
485.622	2523
486.092	2595
486.561	2549
487.031	2612
487.5	2671
487.97	2667
488.439	2704
488.909	2791
489.378	2890
489.848	2885
490.318	2955
490.787	3108
491.257	3142
491.727	3161
492.197	3233
492.667	3223
493.137	3260
493.607	3291
494.077	3334
494.547	3294
495.017	3291
495.487	3373
495.957	3434
496.427	3354
496.897	3358
497.368	3401
497.838	3354
498.308	3382
498.779	3403
499.249	3409
499.719	3413
500.19	3442
500.66	3478
501.131	3485
501.602	3538
502.072	3532
502.543	3573
503.014	3667
503.484	3640
503.955	3743
504.426	3856
504.897	3856
505.368	3955
505.838	4014
506.309	4075
506.78	4233
507.251	4339
507.722	4419
508.194	4506
508.665	4571
509.136	4564
509.607	4682
510.078	4775
510.549	4837
511.021	4965
511.492	4932
511.964	5017
512.435	5098
512.906	5043
513.378	5063
513.849	5190
514.321	5198
514.793	5230
515.264	5289
515.736	5359
516.208	5414
516.679	5435
517.151	5520
517.623	5567
518.095	5595
518.567	5608
519.038	5771
519.51	5790
519.982	5849
520.454	5911
520.927	5980
521.399	6029
521.871	6038
522.343	6055
522.815	6188
523.287	6162
523.76	6175
524.232	6299
524.704	6394
525.177	6283
525.649	6320
526.122	6447
526.594	6313
527.067	6439
527.539	6475
528.012	6436
528.484	6439
528.957	6426
529.43	6408
529.903	6418
530.375	6616
530.848	6408
531.321	6494
531.794	6544
532.267	6663
532.74	6479
533.213	6469
533.686	6601
534.159	6570
534.632	6671
535.105	6667
535.578	6819
536.051	6820
536.525	6791
536.998	6780
537.471	6970
537.945	6861
538.418	6911
538.891	6959
539.365	7086
539.838	7119
540.312	7087
540.786	7138
541.259	7180
541.733	7305
542.206	7242
542.68	7135
543.154	7185
543.628	7172
544.101	7320
544.575	7280
545.049	7153
545.523	7334
545.997	7254
546.471	7308
546.945	7318
547.419	7443
547.893	7083
548.367	7170
548.842	7124
549.316	7152
549.79	7178
550.264	7106
550.739	7205
551.213	7248
551.687	7197
552.162	7215
552.636	7155
553.111	7137
553.585	7267
554.06	7098
554.534	7277
555.009	7224
555.484	7334
555.958	7316
556.433	7365
556.908	7515
557.383	7472
557.858	7615
558.333	7631
558.807	7550
559.282	7650
559.757	7829
560.232	7835
560.708	7700
561.183	7715
561.658	7799
562.133	7763
562.608	7695
563.083	7965
563.559	7788
564.034	7792
564.509	7813
564.985	7899
565.46	7860
565.936	7959
566.411	7880
566.887	7758
567.362	7870
567.838	7850
568.313	7880
568.789	7787
569.265	7815
569.74	7873
570.216	7767
570.692	7807
571.168	7801
571.644	7838
572.12	7797
572.596	7826
573.071	7757
573.547	7957
574.024	8097
574.5	8088
574.976	8086
575.452	8185
575.928	8283
576.404	8320
576.881	8522
577.357	8374
577.833	8478
578.31	8716
578.786	8803
579.262	8933
579.739	8846
580.215	9146
580.692	9185
581.169	9071
581.645	9076
582.122	9296
582.598	9271
583.075	9275
583.552	9344
584.029	9322
584.506	9340
584.982	9288
585.459	9473
585.936	9307
586.413	9413
586.89	9580
587.367	9491
587.844	9558
588.321	9463
588.799	9522
589.276	9501
589.753	9647
590.23	9644
590.707	9570
591.185	9587
591.662	9628
592.139	9754
592.617	9823
593.094	9764
593.572	9848
594.049	9978
594.527	10002
595.004	9930
595.482	10151
595.96	10149
596.437	10180
596.915	10365
597.393	10168
597.871	10392
598.349	10303
598.826	10552
599.304	10538
599.782	10642
600.26	10485
600.738	10729
601.216	10700
601.694	10755
602.173	10764
602.651	10918
603.129	10894
603.607	11042
604.085	11088
604.564	11021
605.042	11048
605.52	11039
605.999	11348
606.477	11100
606.956	11036
607.434	11111.5
607.913	11187
608.391	11218
608.87	11141
609.348	10951
609.827	10997
610.306	11114
610.785	11157
611.263	11175
611.742	11064
612.221	10912
612.7	11086
613.179	11139
613.658	10985
614.137	11080
614.616	11122
615.095	10918
615.574	11042
616.053	11068
616.532	10935
617.011	10996
617.491	11066
617.97	11063
618.449	11198
618.928	11276
619.408	11164
619.887	11268
620.367	11353
620.846	11497
621.326	11440
621.805	11582
622.285	11533
622.764	11662
623.244	11695
623.724	11711
624.203	11721
624.683	11483
625.163	11767
625.643	11794
626.123	11692
626.602	11869
627.082	11524
627.562	11561
628.042	11862
628.522	11789
629.002	11763
629.482	11785
629.963	11784
630.443	11739
630.923	11837
631.403	11891
631.883	11758
632.364	11745
632.844	11678
633.324	11741
633.805	11804
634.285	11658
634.766	11566
635.246	11598
635.727	11696
636.207	11724
636.688	11696
637.168	11622
637.649	11464
638.13	11395
638.611	11513
639.091	11534
639.572	11457
640.053	11321
640.534	11403
641.015	11424
641.496	11255
641.977	11416
642.458	11237
642.939	11194
643.42	11271
643.901	11385
644.382	11489
644.863	11453
645.345	11403
645.826	11397
646.307	11429
646.788	11651
647.27	11473
647.751	11512
648.233	11560
648.714	11297
649.196	11597
649.677	11562
650.159	11582
650.64	11440
651.122	11566
651.603	11402
652.085	11566
652.567	11619
653.049	11514
653.53	11455
654.012	11535
654.494	11350
654.976	11467
655.458	11484
655.94	11469
656.422	11605
656.904	11483
657.386	11405
657.868	11502
658.35	11474
658.833	11510
659.315	11502
659.797	11349
660.279	11367
660.762	11498
661.244	11391
661.726	11252
662.209	11186
662.691	11183
663.174	10974
663.656	11076
664.139	11097
664.621	10971
665.104	10833
665.587	10890
666.069	10903
666.552	10894
667.035	10785
667.517	10731
668	10718
668.483	10674
668.966	10626
669.449	10635
669.932	10709
670.415	10871
670.898	10782
671.381	10787
671.864	10824
672.347	10783
672.83	10856
673.313	10865
673.797	10756
674.28	10877
674.763	10867
675.247	10948
675.73	10951
676.213	11058
676.697	11118
677.18	11036
677.664	11030
678.147	11024
678.631	11083
679.114	11185
679.598	11123
680.082	11136
680.565	11101
681.049	11083
681.533	11135
682.017	11287
682.5	11250
682.984	11241
683.468	11162
683.952	11013
684.436	11267
684.92	11181
685.404	11238
685.888	11315
686.372	11218
686.856	11244
687.341	11389
687.825	11357
688.309	11425
688.793	11380
689.278	11174
689.762	11270
690.246	11227
690.731	11309
691.215	11340
691.7	11044
692.184	11111
692.669	11079
693.153	11144
693.638	11056
694.122	11099
694.607	11202
695.092	11048
695.577	11106
696.061	10921
696.546	10908
697.031	10872
697.516	10986
698.001	10979
698.486	10847
698.971	10914
699.456	10705
699.941	10759
700.426	10813
700.911	10925
701.396	10803
701.881	10836
702.366	10752
702.852	10720
703.337	10817
703.822	10833
704.308	10814
704.793	10801
705.278	10742
705.764	10749
706.249	10727
706.735	10803
707.22	10927
707.706	10762
708.191	10884
708.677	10835
709.163	10774
709.648	10907
710.134	11051
710.62	10972
711.106	10927
711.592	11011
712.077	10938
712.563	10681
713.049	10719
713.535	10946
714.021	10874
714.507	10814
714.993	10640
715.479	10744
715.966	10598
716.452	10682
716.938	10732
717.424	10453
717.91	10634
718.397	10457
718.883	10333
719.369	10349
719.856	10306
720.342	10473
720.829	10382
721.315	10388
721.802	10337
722.288	10412
722.775	10120
723.262	9897
723.748	10375
724.235	10295
724.722	10407
725.208	10132
725.695	10076
726.182	10051
726.669	9948
727.156	10071
727.643	9980
728.13	10010
728.617	9907
729.104	9870
729.591	9773
730.078	9873
730.565	9921
731.052	9776
731.539	9781
732.027	9657
732.514	9498
733.001	9580
733.488	9579
733.976	9619
734.463	9618
734.951	9574
735.438	9649
735.926	9484
736.413	9525
736.901	9458
737.388	9618
737.876	9642
738.364	9584
738.851	9606
739.339	9533
739.827	9592
740.314	9376
740.802	9519
741.29	9595
741.778	9515
742.266	9525
742.754	9484
743.242	9491
743.73	9312
744.218	9353
744.706	9343
745.194	9518
745.682	9469
746.17	9475
746.659	9388
747.147	9115
747.635	9217
748.123	9288
748.612	9294
749.1	9248
749.589	9302
750.077	9191
750.566	9089
751.054	9129
751.543	9211
752.031	9070
752.52	9130
753.008	8925
753.497	8874
753.986	8817
754.474	8710
754.963	8777
755.452	8692
755.941	8712
756.43	8746
756.919	8703
757.408	8619
757.896	8615
758.385	8600
758.875	8548
759.364	8526
759.853	8547
760.342	8427
760.831	8607
761.32	8509
761.809	8337
762.299	8397
762.788	8431
763.277	8466
763.767	8397
764.256	8426
764.745	8293
765.235	8386
765.724	8150
766.214	8255
766.703	8267
767.193	8208
767.683	8261
768.172	8117
768.662	8178
769.152	8112
769.641	8103
770.131	7916
770.621	8054
771.111	8033
771.601	8108
772.09	8056
772.58	7913
773.07	7867
773.56	7878
774.05	7729
774.54	7769
775.031	7815
775.521	7832
776.011	7840
776.501	7879
776.991	7693
777.482	7715
777.972	7533
778.462	7572
778.953	7698
779.443	7689
779.933	7683
780.424	7544
780.914	7552
781.405	7518
781.895	7458
782.386	7479
782.877	7534
783.367	7468
783.858	7436
784.349	7433
784.839	7333
785.33	7287
785.821	7196
786.312	7157
786.803	7203
787.293	7285
787.784	7244
788.275	7136
788.766	7045
789.257	7115
789.748	6920
790.24	6865
790.731	6950
791.222	6903
791.713	6933
792.204	6951
792.696	6744
793.187	6776
793.678	6698
794.169	6527
794.661	6695
795.152	6677
795.644	6674
796.135	6685
796.627	6731
797.118	6591
797.61	6514
798.101	6450
798.593	6579
799.085	6518
799.576	6594
800.068	6553
800.56	6568
801.052	6362
801.544	6296
802.035	6307
802.527	6237
803.019	6219
803.511	6231
804.003	6254
804.495	6314
804.987	6249
805.479	6085
805.971	6100
806.464	6095
806.956	5954
807.448	5995
807.94	6057
808.433	6051
808.925	6010
809.417	5928
809.91	5884
810.402	5712
810.894	5758
811.387	5808
811.879	5743
812.372	5798
812.865	5750
813.357	5724
813.85	5656
814.342	5579
814.835	5579
815.328	5590
815.821	5576
816.313	5649
816.806	5720
817.299	5720
817.792	5792
818.285	5701
818.778	5742
819.271	5719
819.764	5604
820.257	5626
820.75	5642
821.243	5692
821.736	5655
822.229	5701
822.722	5690
823.216	5780
