Data from lamp4bck_noballon_dubbel_Subt2__197__997.txt Node

Date: Wed Apr 09 12:19:59 CEST 2025
User: fys-lab-0081
Spectrometer: S04999
Trigger mode: 0
Resolution mode: 1024 pixels
Integration Time (sec): 1.000000E-1
Scans to average: 1
Nonlinearity correction enabled: false
Boxcar width: 0
Baseline correction enabled: true
XAxis mode: Wavelengths
Number of Pixels in Spectrum: 1024
>>>>>Begin Spectral Data<<<<<
336.42	12
336.877	15
337.334	14
337.792	10
338.249	12
338.706	11
339.164	18
339.621	12
340.079	15
340.536	17
340.994	13
341.452	19
341.909	16
342.367	17
342.825	19
343.283	19
343.741	19
344.198	22
344.656	16
345.114	19
345.572	21
346.03	22
346.488	21
346.947	18
347.405	20
347.863	17
348.321	18
348.779	24
349.238	22
349.696	27
350.154	23
350.613	23
351.071	30
351.53	34
351.988	28
352.447	28
352.905	27
353.364	29
353.823	36
354.282	32
354.74	28
355.199	36
355.658	36
356.117	38
356.576	39
357.035	37
357.494	36
357.953	39
358.412	40
358.871	41
359.33	41
359.789	39
360.249	47
360.708	43
361.167	45
361.626	52
362.086	47
362.545	55
363.005	57
363.464	57
363.924	58
364.383	55
364.843	63
365.303	64
365.762	70
366.222	64
366.682	69
367.142	71
367.601	67
368.061	67
368.521	70
368.981	72
369.441	78
369.901	77
370.361	71
370.821	71
371.282	78
371.742	80
372.202	82
372.662	88
373.123	83
373.583	89
374.043	94
374.504	87
374.964	94
375.425	96
375.885	98
376.346	107
376.806	108
377.267	103
377.728	111
378.188	113
378.649	112
379.11	117
379.571	112
380.032	122
380.493	120
380.954	124
381.414	129
381.876	131
382.337	135
382.798	139
383.259	145
383.72	152
384.181	153
384.642	159
385.104	170
385.565	166
386.026	180
386.488	182
386.949	188
387.411	189
387.872	194
388.334	198
388.795	203
389.257	207
389.719	207
390.181	214
390.642	221
391.104	221
391.566	230
392.028	241
392.49	250
392.952	251
393.414	258
393.876	269
394.338	269
394.8	270
395.262	272
395.724	289
396.186	286
396.648	293
397.111	298
397.573	306
398.035	299
398.498	309
398.96	313
399.423	317
399.885	322
400.348	327
400.81	342
401.273	342
401.736	342
402.198	367
402.661	374
403.124	376
403.587	390
404.049	399.5
404.512	409
404.975	417
405.438	412
405.901	428
406.364	423
406.827	426
407.29	420
407.754	423
408.217	427
408.68	418
409.143	435
409.607	439
410.07	444
410.533	441
410.997	455
411.46	458
411.924	469
412.387	474
412.851	486
413.314	504
413.778	503
414.242	515
414.705	539
415.169	532
415.633	539
416.097	539
416.561	548
417.024	561
417.488	534
417.952	548
418.416	538
418.88	540
419.344	539
419.809	546
420.273	558
420.737	545
421.201	567
421.665	574
422.13	569
422.594	589
423.059	595
423.523	612
423.987	608
424.452	642
424.916	658
425.381	679
425.846	680
426.31	690
426.775	702
427.24	708
427.704	699
428.169	706
428.634	713
429.099	705
429.564	701
430.029	709
430.494	708
430.959	713
431.424	700
431.889	723
432.354	740
432.819	718
433.284	748
433.75	760
434.215	781
434.68	779
435.146	795
435.611	829
436.077	860
436.542	872
437.008	911
437.473	925
437.939	926
438.404	948
438.87	961
439.336	947
439.801	952
440.267	971
440.733	977
441.199	979
441.665	984
442.131	1008
442.596	979
443.062	1011
443.529	1055
443.995	1061
444.461	1064
444.927	1109
445.393	1109
445.859	1163
446.325	1180
446.792	1245
447.258	1241
447.724	1280
448.191	1343
448.657	1356
449.124	1398
449.59	1378
450.057	1456
450.523	1486
450.99	1507
451.457	1508
451.923	1527
452.39	1509
452.857	1549
453.324	1529
453.791	1551
454.257	1574
454.724	1582
455.191	1567
455.658	1572
456.125	1626
456.592	1590
457.059	1638
457.527	1646
457.994	1704
458.461	1711
458.928	1733
459.396	1733
459.863	1787
460.33	1788
460.798	1802
461.265	1828
461.732	1820
462.2	1861
462.668	1853
463.135	1873
463.603	1824
464.07	1883
464.538	1809
465.006	1865
465.474	1829
465.941	1822
466.409	1833
466.877	1813
467.345	1847
467.813	1811
468.281	1845
468.749	1860
469.217	1845
469.685	1886
470.153	1915
470.621	1894
471.09	1912
471.558	2002
472.026	1973
472.494	2033
472.963	2051
473.431	2098
473.9	2147
474.368	2205
474.837	2220
475.305	2269
475.774	2312
476.242	2365
476.711	2400
477.18	2460
477.648	2438
478.117	2477
478.586	2464
479.055	2462
479.524	2478
479.993	2464
480.462	2455
480.93	2444
481.399	2468
481.869	2482
482.338	2433
482.807	2472
483.276	2476
483.745	2453
484.214	2513
484.684	2550
485.153	2529
485.622	2544
486.092	2615
486.561	2566
487.031	2629
487.5	2684
487.97	2683
488.439	2733
488.909	2800
489.378	2913
489.848	2909
490.318	2982
490.787	3129
491.257	3165
491.727	3194
492.197	3257
492.667	3256
493.137	3291
493.607	3317
494.077	3363
494.547	3327
495.017	3321
495.487	3399
495.957	3470
496.427	3385
496.897	3383
497.368	3437
497.838	3388
498.308	3408
498.779	3425
499.249	3448
499.719	3431
500.19	3479
500.66	3499
501.131	3508
501.602	3560
502.072	3560
502.543	3601
503.014	3699
503.484	3668
503.955	3778
504.426	3871
504.897	3893
505.368	3984
505.838	4052
506.309	4111
506.78	4260
507.251	4383
507.722	4442
508.194	4547
508.665	4612
509.136	4603
509.607	4733
510.078	4813
510.549	4878
511.021	5015
511.492	4977
511.964	5055
512.435	5137
512.906	5066
513.378	5107
513.849	5219
514.321	5227
514.793	5272
515.264	5329
515.736	5394
516.208	5463
516.679	5478
517.151	5556
517.623	5607
518.095	5634
518.567	5665
519.038	5815
519.51	5828
519.982	5898
520.454	5951
520.927	6011
521.399	6066
521.871	6070
522.343	6105
522.815	6227
523.287	6212
523.76	6223
524.232	6339
524.704	6431
525.177	6323
525.649	6364
526.122	6480
526.594	6369
527.067	6485
527.539	6521
528.012	6488
528.484	6482
528.957	6477
529.43	6452
529.903	6461
530.375	6662
530.848	6458
531.321	6545
531.794	6590
532.267	6705
532.74	6532
533.213	6512
533.686	6651
534.159	6618
534.632	6726
535.105	6716
535.578	6860
536.051	6878
536.525	6841
536.998	6845
537.471	7021
537.945	6918
538.418	6965
538.891	7016
539.365	7148
539.838	7174
540.312	7143
540.786	7189
541.259	7234
541.733	7358
542.206	7317
542.68	7176
543.154	7228
543.628	7210
544.101	7358
544.575	7331
545.049	7208
545.523	7388
545.997	7294
546.471	7370
546.945	7369
547.419	7495
547.893	7127
548.367	7224
548.842	7188
549.316	7211
549.79	7223
550.264	7153
550.739	7255
551.213	7296
551.687	7252
552.162	7271
552.636	7199
553.111	7189
553.585	7319
554.06	7136
554.534	7310
555.009	7288
555.484	7386
555.958	7382
556.433	7417
556.908	7571
557.383	7520
557.858	7665
558.333	7670
558.807	7600
559.282	7702
559.757	7884
560.232	7899
560.708	7741
561.183	7764
561.658	7852
562.133	7820
562.608	7743
563.083	8025
563.559	7843
564.034	7855
564.509	7857
564.985	7941
565.46	7918
565.936	8000
566.411	7943
566.887	7812
567.362	7923
567.838	7892
568.313	7949
568.789	7841
569.265	7874
569.74	7939
570.216	7817
570.692	7878
571.168	7859
571.644	7885
572.12	7856
572.596	7872
573.071	7794
573.547	8015
574.024	8133
574.5	8145
574.976	8130
575.452	8251
575.928	8343
576.404	8371
576.881	8574
577.357	8432
577.833	8544
578.31	8778
578.786	8865
579.262	9002
579.739	8925
580.215	9209
580.692	9246
581.169	9127
581.645	9126
582.122	9368
582.598	9325
583.075	9341
583.552	9400
584.029	9385
584.506	9396
584.982	9340
585.459	9543
585.936	9377
586.413	9481
586.89	9640
587.367	9533
587.844	9617
588.321	9540
588.799	9587
589.276	9554
589.753	9711
590.23	9710
590.707	9640
591.185	9650
591.662	9671
592.139	9801
592.617	9900
593.094	9833
593.572	9908
594.049	10039
594.527	10060
595.004	9996
595.482	10235
595.96	10217
596.437	10244
596.915	10429
597.393	10238
597.871	10470
598.349	10379
598.826	10616
599.304	10599
599.782	10715
600.26	10548
600.738	10793
601.216	10770
601.694	10818
602.173	10850
602.651	10975
603.129	10971
603.607	11099
604.085	11163
604.564	11096
605.042	11119
605.52	11119
605.999	11415
606.477	11148
606.956	11103
607.434	11181.5
607.913	11260
608.391	11289
608.87	11210
609.348	11023
609.827	11069
610.306	11174
610.785	11237
611.263	11233
611.742	11134
612.221	10967
612.7	11156
613.179	11222
613.658	11054
614.137	11131
614.616	11201
615.095	10985
615.574	11113
616.053	11130
616.532	10995
617.011	11046
617.491	11108
617.97	11136
618.449	11270
618.928	11359
619.408	11234
619.887	11326
620.367	11413
620.846	11561
621.326	11509
621.805	11648
622.285	11604
622.764	11733
623.244	11778
623.724	11780
624.203	11782
624.683	11566
625.163	11843
625.643	11859
626.123	11756
626.602	11925
627.082	11603
627.562	11630
628.042	11934
628.522	11860
629.002	11825
629.482	11858
629.963	11869
630.443	11812
630.923	11901
631.403	11961
631.883	11828
632.364	11822
632.844	11743
633.324	11816
633.805	11874
634.285	11728
634.766	11634
635.246	11657
635.727	11771
636.207	11800
636.688	11769
637.168	11694
637.649	11540
638.13	11470
638.611	11586
639.091	11598
639.572	11533
640.053	11377
640.534	11472
641.015	11494
641.496	11333
641.977	11473
642.458	11303
642.939	11281
643.42	11338
643.901	11442
644.382	11555
644.863	11514
645.345	11473
645.826	11463
646.307	11493
646.788	11720
647.27	11545
647.751	11574
648.233	11622
648.714	11354
649.196	11678
649.677	11635
650.159	11669
650.64	11505
651.122	11634
651.603	11478
652.085	11640
652.567	11691
653.049	11581
653.53	11519
654.012	11599
654.494	11410
654.976	11541
655.458	11555
655.94	11530
656.422	11675
656.904	11565
657.386	11480
657.868	11560
658.35	11535
658.833	11588
659.315	11564
659.797	11414
660.279	11439
660.762	11566
661.244	11470
661.726	11305
662.209	11265
662.691	11239
663.174	11034
663.656	11145
664.139	11168
664.621	11036
665.104	10883
665.587	10934
666.069	10975
666.552	10959
667.035	10838
667.517	10787
668	10783
668.483	10731
668.966	10701
669.449	10691
669.932	10781
670.415	10931
670.898	10839
671.381	10847
671.864	10880
672.347	10846
672.83	10909
673.313	10925
673.797	10817
674.28	10930
674.763	10950
675.247	11000
675.73	11016
676.213	11119
676.697	11185
677.18	11114
677.664	11104
678.147	11088
678.631	11151
679.114	11261
679.598	11174
680.082	11187
680.565	11168
681.049	11155
681.533	11187
682.017	11343
682.5	11293
682.984	11294
683.468	11226
683.952	11075
684.436	11330
684.92	11239
685.404	11290
685.888	11381
686.372	11285
686.856	11293
687.341	11461
687.825	11408
688.309	11492
688.793	11439
689.278	11237
689.762	11343
690.246	11281
690.731	11377
691.215	11401
691.7	11096
692.184	11185
692.669	11145
693.153	11195
693.638	11107
694.122	11159
694.607	11255
695.092	11099
695.577	11176
696.061	10967
696.546	10971
697.031	10932
697.516	11043
698.001	11031
698.486	10909
698.971	10978
699.456	10789
699.941	10824
700.426	10871
700.911	10969
701.396	10856
701.881	10900
702.366	10803
702.852	10772
703.337	10878
703.822	10888
704.308	10888
704.793	10870
705.278	10811
705.764	10820
706.249	10795
706.735	10862
707.22	10988
707.706	10821
708.191	10926
708.677	10885
709.163	10832
709.648	10976
710.134	11125
710.62	11031
711.106	10995
711.592	11077
712.077	10989
712.563	10753
713.049	10773
713.535	11010
714.021	10941
714.507	10855
714.993	10691
715.479	10800
715.966	10658
716.452	10740
716.938	10797
717.424	10504
717.91	10690
718.397	10509
718.883	10400
719.369	10415
719.856	10344
720.342	10527
720.829	10436
721.315	10468
721.802	10414
722.288	10477
722.775	10179
723.262	9966
723.748	10426
724.235	10358
724.722	10472
725.208	10186
725.695	10132
726.182	10113
726.669	10032
727.156	10132
727.643	10047
728.13	10068
728.617	9964
729.104	9929
729.591	9838
730.078	9931
730.565	9980
731.052	9819
731.539	9838
732.027	9714
732.514	9547
733.001	9637
733.488	9626
733.976	9666
734.463	9675
734.951	9640
735.438	9706
735.926	9549
736.413	9581
736.901	9517
737.388	9668
737.876	9689
738.364	9645
738.851	9658
739.339	9584
739.827	9660
740.314	9435
740.802	9562
741.29	9659
741.778	9577
742.266	9576
742.754	9537
743.242	9552
743.73	9368
744.218	9412
744.706	9386
745.194	9573
745.682	9523
746.17	9516
746.659	9439
747.147	9166
747.635	9271
748.123	9335
748.612	9343
749.1	9309
749.589	9359
750.077	9233
750.566	9135
751.054	9183
751.543	9263
752.031	9118
752.52	9178
753.008	8981
753.497	8918
753.986	8874
754.474	8754
754.963	8817
755.452	8729
755.941	8754
756.43	8790
756.919	8740
757.408	8668
757.896	8660
758.385	8655
758.875	8600
759.364	8574
759.853	8598
760.342	8477
760.831	8648
761.32	8551
761.809	8385
762.299	8424
762.788	8479
763.277	8506
763.767	8446
764.256	8487
764.745	8345
765.235	8423
765.724	8191
766.214	8306
766.703	8326
767.193	8240
767.683	8308
768.172	8153
768.662	8225
769.152	8156
769.641	8148
770.131	7951
770.621	8094
771.111	8085
771.601	8144
772.09	8096
772.58	7931
773.07	7912
773.56	7926
774.05	7773
774.54	7798
775.031	7854
775.521	7870
776.011	7897
776.501	7927
776.991	7724
777.482	7758
777.972	7586
778.462	7616
778.953	7743
779.443	7737
779.933	7734
780.424	7596
780.914	7596
781.405	7566
781.895	7493
782.386	7523
782.877	7551
783.367	7499
783.858	7472
784.349	7466
784.839	7375
785.33	7320
785.821	7232
786.312	7187
786.803	7241
787.293	7319
787.784	7281
788.275	7182
788.766	7087
789.257	7143
789.748	6957
790.24	6902
790.731	6989
791.222	6950
791.713	6975
792.204	6994
792.696	6787
793.187	6813
793.678	6739
794.169	6568
794.661	6730
795.152	6712
795.644	6714
796.135	6728
796.627	6765
797.118	6628
797.61	6544
798.101	6487
798.593	6616
799.085	6561
799.576	6628
800.068	6594
800.56	6594
801.052	6396
801.544	6335
802.035	6341
802.527	6275
803.019	6249
803.511	6267
804.003	6279
804.495	6351
804.987	6286
805.479	6118
805.971	6123
806.464	6120
806.956	5994
807.448	6032
807.94	6087
808.433	6082
808.925	6049
809.417	5974
809.91	5909
810.402	5744
810.894	5785
811.387	5842
811.879	5770
812.372	5821
812.865	5776
813.357	5751
813.85	5672
814.342	5603
814.835	5602
815.328	5617
815.821	5596
816.313	5673
816.806	5761
817.299	5758
817.792	5818
818.285	5736
818.778	5783
819.271	5747
819.764	5631
820.257	5655
820.75	5681
821.243	5730
821.736	5686
822.229	5737
822.722	5714
823.216	5815
