Data from lamp4bck_noballon_dubbel_Subt2__188__988.txt Node

Date: Wed Apr 09 12:19:58 CEST 2025
User: fys-lab-0081
Spectrometer: S04999
Trigger mode: 0
Resolution mode: 1024 pixels
Integration Time (sec): 1.000000E-1
Scans to average: 1
Nonlinearity correction enabled: false
Boxcar width: 0
Baseline correction enabled: true
XAxis mode: Wavelengths
Number of Pixels in Spectrum: 1024
>>>>>Begin Spectral Data<<<<<
336.42	10
336.877	12
337.334	11
337.792	12
338.249	13
338.706	12
339.164	18
339.621	13
340.079	14
340.536	20
340.994	15
341.452	14
341.909	19
342.367	14
342.825	12
343.283	20
343.741	11
344.198	17
344.656	17
345.114	19
345.572	23
346.03	20
346.488	19
346.947	18
347.405	21
347.863	18
348.321	21
348.779	30
349.238	21
349.696	22
350.154	23
350.613	25
351.071	28
351.53	33
351.988	29
352.447	28
352.905	26
353.364	32
353.823	36
354.282	30
354.74	31
355.199	39
355.658	36
356.117	36
356.576	36
357.035	36
357.494	40
357.953	39
358.412	42
358.871	42
359.33	41
359.789	42
360.249	48
360.708	47
361.167	48
361.626	49
362.086	44
362.545	52
363.005	57
363.464	56
363.924	55
364.383	58
364.843	63
365.303	67
365.762	67
366.222	65
366.682	64
367.142	69
367.601	73
368.061	70
368.521	73
368.981	73
369.441	74
369.901	75
370.361	72
370.821	74
371.282	76
371.742	78
372.202	82
372.662	86
373.123	80
373.583	88
374.043	98
374.504	88
374.964	98
375.425	96
375.885	98
376.346	104
376.806	111
377.267	107
377.728	113
378.188	114
378.649	111
379.11	116
379.571	114
380.032	125
380.493	122
380.954	131
381.414	130
381.876	130
382.337	135
382.798	141
383.259	146
383.72	151
384.181	153
384.642	159
385.104	171
385.565	178
386.026	177
386.488	186
386.949	188
387.411	188
387.872	195
388.334	197
388.795	202
389.257	207
389.719	213
390.181	221
390.642	220
391.104	224
391.566	230
392.028	247
392.49	252
392.952	255
393.414	261
393.876	270
394.338	272
394.8	272
395.262	276
395.724	285
396.186	291
396.648	294
397.111	293
397.573	306
398.035	301
398.498	308
398.96	310
399.423	320
399.885	325
400.348	329
400.81	342
401.273	342
401.736	341
402.198	366
402.661	377
403.124	373
403.587	390
404.049	400
404.512	410
404.975	416
405.438	409
405.901	424
406.364	424
406.827	425
407.29	423
407.754	423
408.217	424
408.68	421
409.143	437
409.607	441
410.07	443
410.533	441
410.997	456
411.46	456
411.924	467
412.387	471
412.851	491
413.314	502
413.778	505
414.242	513
414.705	538
415.169	533
415.633	542
416.097	539
416.561	547
417.024	563
417.488	534
417.952	547
418.416	539
418.88	542
419.344	542
419.809	544
420.273	560
420.737	551
421.201	557
421.665	573
422.13	571
422.594	589
423.059	600
423.523	609
423.987	616
424.452	637
424.916	655
425.381	682
425.846	679
426.31	694
426.775	704
427.24	708
427.704	697
428.169	703
428.634	708
429.099	705
429.564	700
430.029	713
430.494	709
430.959	711
431.424	706
431.889	725
432.354	741
432.819	719
433.284	754
433.75	760
434.215	779
434.68	786
435.146	798
435.611	829
436.077	857
436.542	871
437.008	905
437.473	923
437.939	922
438.404	947
438.87	961
439.336	950
439.801	955
440.267	967
440.733	979
441.199	984
441.665	981
442.131	1002
442.596	981
443.062	1020
443.529	1054
443.995	1060
444.461	1069
444.927	1115
445.393	1111
445.859	1164
446.325	1182
446.792	1248
447.258	1244
447.724	1284
448.191	1348
448.657	1353
449.124	1393
449.59	1381
450.057	1457
450.523	1482
450.99	1517
451.457	1508
451.923	1528
452.39	1512
452.857	1551
453.324	1533
453.791	1553
454.257	1569
454.724	1587
455.191	1569
455.658	1578
456.125	1623
456.592	1593
457.059	1642
457.527	1650
457.994	1700
458.461	1702
458.928	1728
459.396	1736
459.863	1792
460.33	1787
460.798	1802
461.265	1835
461.732	1823
462.2	1860
462.668	1857
463.135	1871
463.603	1823
464.07	1890
464.538	1806
465.006	1862
465.474	1831
465.941	1825
466.409	1836
466.877	1811
467.345	1847
467.813	1814
468.281	1851
468.749	1862
469.217	1842
469.685	1881
470.153	1908
470.621	1895
471.09	1912
471.558	2001
472.026	1975
472.494	2038
472.963	2052
473.431	2099
473.9	2144
474.368	2191
474.837	2214
475.305	2268
475.774	2314
476.242	2369
476.711	2402
477.18	2465
477.648	2442
478.117	2479
478.586	2464
479.055	2460
479.524	2477
479.993	2465
480.462	2444
480.93	2448
481.399	2465
481.869	2481
482.338	2432
482.807	2470
483.276	2474
483.745	2453
484.214	2513
484.684	2554
485.153	2531
485.622	2540
486.092	2619
486.561	2572
487.031	2624
487.5	2691
487.97	2690
488.439	2729
488.909	2808
489.378	2909
489.848	2909
490.318	2983
490.787	3136
491.257	3157
491.727	3189
492.197	3259
492.667	3258
493.137	3283
493.607	3315
494.077	3369
494.547	3331
495.017	3312
495.487	3398
495.957	3470
496.427	3383
496.897	3381
497.368	3430
497.838	3384
498.308	3405
498.779	3426
499.249	3445
499.719	3432
500.19	3472
500.66	3500
501.131	3511
501.602	3562
502.072	3566
502.543	3601
503.014	3696
503.484	3667
503.955	3773
504.426	3884
504.897	3888
505.368	3989
505.838	4048
506.309	4115
506.78	4258
507.251	4379
507.722	4445
508.194	4549
508.665	4615
509.136	4604
509.607	4724
510.078	4807
510.549	4878
511.021	5008
511.492	4976
511.964	5054
512.435	5129
512.906	5078
513.378	5110
513.849	5221
514.321	5238
514.793	5273
515.264	5325
515.736	5399
516.208	5458
516.679	5469
517.151	5555
517.623	5594
518.095	5635
518.567	5668
519.038	5808
519.51	5832
519.982	5888
520.454	5962
520.927	6025
521.399	6070
521.871	6077
522.343	6098
522.815	6227
523.287	6205
523.76	6225
524.232	6349
524.704	6427
525.177	6326
525.649	6370
526.122	6489
526.594	6355
527.067	6495
527.539	6520
528.012	6488
528.484	6489
528.957	6471
529.43	6450
529.903	6461
530.375	6668
530.848	6462
531.321	6541
531.794	6589
532.267	6714
532.74	6532
533.213	6504
533.686	6650
534.159	6616
534.632	6720
535.105	6724
535.578	6862
536.051	6872
536.525	6830
536.998	6839
537.471	7019
537.945	6912
538.418	6960
538.891	7010
539.365	7149
539.838	7168
540.312	7146
540.786	7188
541.259	7239
541.733	7352
542.206	7304
542.68	7179
543.154	7221
543.628	7206
544.101	7369
544.575	7336
545.049	7205
545.523	7396
545.997	7303
546.471	7365
546.945	7365
547.419	7485
547.893	7145
548.367	7221
548.842	7174
549.316	7209
549.79	7220
550.264	7152
550.739	7259
551.213	7303
551.687	7252
552.162	7265
552.636	7208
553.111	7178
553.585	7329
554.06	7142
554.534	7312
555.009	7284
555.484	7369
555.958	7370
556.433	7410
556.908	7571
557.383	7526
557.858	7665
558.333	7680
558.807	7601
559.282	7693
559.757	7879
560.232	7886
560.708	7749
561.183	7771
561.658	7839
562.133	7818
562.608	7745
563.083	8025
563.559	7845
564.034	7838
564.509	7864
564.985	7952
565.46	7910
565.936	8000
566.411	7944
566.887	7816
567.362	7928
567.838	7890
568.313	7946
568.789	7847
569.265	7863
569.74	7929
570.216	7821
570.692	7867
571.168	7865
571.644	7896
572.12	7846
572.596	7870
573.071	7794
573.547	8028
574.024	8140
574.5	8137
574.976	8141
575.452	8249
575.928	8329
576.404	8366
576.881	8573
577.357	8436
577.833	8545
578.31	8773
578.786	8878
579.262	8990
579.739	8913
580.215	9222
580.692	9248
581.169	9128
581.645	9138
582.122	9359
582.598	9328
583.075	9340
583.552	9405
584.029	9382
584.506	9391
584.982	9338
585.459	9543
585.936	9368
586.413	9466
586.89	9647
587.367	9553
587.844	9628
588.321	9530
588.799	9582
589.276	9562
589.753	9714
590.23	9707
590.707	9637
591.185	9657
591.662	9690
592.139	9816
592.617	9881
593.094	9824
593.572	9919
594.049	10035
594.527	10067
595.004	9990
595.482	10227
595.96	10215
596.437	10263
596.915	10438
597.393	10249
597.871	10452
598.349	10381
598.826	10629
599.304	10593
599.782	10720
600.26	10556
600.738	10790
601.216	10779
601.694	10814
602.173	10841
602.651	10980
603.129	10965
603.607	11104
604.085	11150
604.564	11103
605.042	11121
605.52	11116
605.999	11410
606.477	11160
606.956	11105
607.434	11180
607.913	11255
608.391	11283
608.87	11220
609.348	11015
609.827	11065
610.306	11186
610.785	11240
611.263	11231
611.742	11144
612.221	10971
612.7	11152
613.179	11223
613.658	11073
614.137	11140
614.616	11181
615.095	10993
615.574	11105
616.053	11118
616.532	11004
617.011	11063
617.491	11115
617.97	11128
618.449	11272
618.928	11357
619.408	11245
619.887	11327
620.367	11424
620.846	11571
621.326	11507
621.805	11645
622.285	11604
622.764	11741
623.244	11781
623.724	11779
624.203	11783
624.683	11553
625.163	11854
625.643	11875
626.123	11756
626.602	11923
627.082	11604
627.562	11626
628.042	11944
628.522	11877
629.002	11828
629.482	11857
629.963	11864
630.443	11811
630.923	11900
631.403	11963
631.883	11829
632.364	11811
632.844	11737
633.324	11820
633.805	11871
634.285	11730
634.766	11637
635.246	11677
635.727	11761
636.207	11807
636.688	11754
637.168	11694
637.649	11532
638.13	11481
638.611	11589
639.091	11594
639.572	11527
640.053	11391
640.534	11468
641.015	11498
641.496	11332
641.977	11481
642.458	11301
642.939	11269
643.42	11342
643.901	11461
644.382	11559
644.863	11512
645.345	11483
645.826	11458
646.307	11500
646.788	11716
647.27	11537
647.751	11587
648.233	11623
648.714	11358
649.196	11679
649.677	11645
650.159	11656
650.64	11504
651.122	11645
651.603	11485
652.085	11637
652.567	11701
653.049	11590
653.53	11530
654.012	11598
654.494	11408
654.976	11553
655.458	11553
655.94	11538
656.422	11675
656.904	11563
657.386	11476
657.868	11557
658.35	11547
658.833	11593
659.315	11567
659.797	11419
660.279	11447
660.762	11563
661.244	11466
661.726	11317
662.209	11258
662.691	11246
663.174	11046
663.656	11138
664.139	11161
664.621	11032
665.104	10907
665.587	10948
666.069	10983
666.552	10954
667.035	10832
667.517	10799
668	10794
668.483	10742
668.966	10694
669.449	10699
669.932	10781
670.415	10951
670.898	10840
671.381	10848
671.864	10885
672.347	10848
672.83	10909
673.313	10918
673.797	10815
674.28	10943
674.763	10943
675.247	10998
675.73	11026
676.213	11132
676.697	11199
677.18	11108
677.664	11084
678.147	11098
678.631	11151
679.114	11254
679.598	11185
680.082	11211
680.565	11152
681.049	11148
681.533	11205
682.017	11333
682.5	11301
682.984	11310
683.468	11216
683.952	11076
684.436	11334
684.92	11225
685.404	11297
685.888	11379
686.372	11292
686.856	11289
687.341	11480
687.825	11416
688.309	11487
688.793	11445
689.278	11244
689.762	11320
690.246	11285
690.731	11367
691.215	11416
691.7	11108
692.184	11168
692.669	11150
693.153	11203
693.638	11110
694.122	11168
694.607	11263
695.092	11120
695.577	11168
696.061	10974
696.546	10972
697.031	10935
697.516	11047
698.001	11037
698.486	10921
698.971	10987
699.456	10780
699.941	10822
700.426	10871
700.911	10984
701.396	10861
701.881	10897
702.366	10806
702.852	10780
703.337	10886
703.822	10893
704.308	10884
704.793	10860
705.278	10815
705.764	10819
706.249	10784
706.735	10861
707.22	10987
707.706	10819
708.191	10946
708.677	10889
709.163	10829
709.648	10972
710.134	11131
710.62	11024
711.106	10988
711.592	11067
712.077	10995
712.563	10745
713.049	10786
713.535	11013
714.021	10937
714.507	10870
714.993	10710
715.479	10810
715.966	10660
716.452	10732
716.938	10793
717.424	10513
717.91	10698
718.397	10512
718.883	10398
719.369	10406
719.856	10352
720.342	10538
720.829	10446
721.315	10461
721.802	10413
722.288	10469
722.775	10172
723.262	9967
723.748	10435
724.235	10355
724.722	10460
725.208	10195
725.695	10132
726.182	10111
726.669	10025
727.156	10131
727.643	10036
728.13	10054
728.617	9962
729.104	9931
729.591	9835
730.078	9941
730.565	9975
731.052	9823
731.539	9839
732.027	9717
732.514	9555
733.001	9636
733.488	9634
733.976	9665
734.463	9675
734.951	9628
735.438	9717
735.926	9550
736.413	9570
736.901	9523
737.388	9679
737.876	9683
738.364	9650
738.851	9657
739.339	9591
739.827	9664
740.314	9421
740.802	9565
741.29	9650
741.778	9574
742.266	9575
742.754	9545
743.242	9541
743.73	9366
744.218	9417
744.706	9391
745.194	9563
745.682	9510
746.17	9510
746.659	9432
747.147	9161
747.635	9259
748.123	9336
748.612	9349
749.1	9304
749.589	9356
750.077	9242
750.566	9144
751.054	9181
751.543	9273
752.031	9119
752.52	9186
753.008	8981
753.497	8925
753.986	8866
754.474	8767
754.963	8821
755.452	8722
755.941	8759
756.43	8790
756.919	8759
757.408	8676
757.896	8660
758.385	8662
758.875	8584
759.364	8572
759.853	8595
760.342	8490
760.831	8647
761.32	8538
761.809	8384
762.299	8438
762.788	8479
763.277	8503
763.767	8430
764.256	8487
764.745	8354
765.235	8427
765.724	8186
766.214	8299
766.703	8322
767.193	8249
767.683	8294
768.172	8164
768.662	8215
769.152	8155
769.641	8160
770.131	7973
770.621	8094
771.111	8081
771.601	8155
772.09	8099
772.58	7947
773.07	7918
773.56	7929
774.05	7777
774.54	7812
775.031	7850
775.521	7876
776.011	7889
776.501	7921
776.991	7736
777.482	7766
777.972	7577
778.462	7619
778.953	7736
779.443	7741
779.933	7732
780.424	7593
780.914	7585
781.405	7559
781.895	7501
782.386	7515
782.877	7566
783.367	7502
783.858	7467
784.349	7457
784.839	7374
785.33	7316
785.821	7235
786.312	7192
786.803	7252
787.293	7316
787.784	7287
788.275	7182
788.766	7086
789.257	7152
789.748	6951
790.24	6892
790.731	6992
791.222	6949
791.713	6966
792.204	6995
792.696	6777
793.187	6815
793.678	6737
794.169	6570
794.661	6738
795.152	6702
795.644	6726
796.135	6718
796.627	6766
797.118	6624
797.61	6554
798.101	6485
798.593	6621
799.085	6546
799.576	6631
800.068	6603
800.56	6605
801.052	6398
801.544	6338
802.035	6336
802.527	6278
803.019	6260
803.511	6264
804.003	6288
804.495	6349
804.987	6298
805.479	6116
805.971	6130
806.464	6121
806.956	5986
807.448	6032
807.94	6091
808.433	6086
808.925	6046
809.417	5961
809.91	5913
810.402	5743
810.894	5780
811.387	5838
811.879	5774
812.372	5821
812.865	5768
813.357	5752
813.85	5683
814.342	5612
814.835	5601
815.328	5630
815.821	5604
816.313	5678
816.806	5752
817.299	5750
817.792	5808
818.285	5733
818.778	5776
819.271	5747
819.764	5633
820.257	5662
820.75	5683
821.243	5721
821.736	5684
822.229	5731
822.722	5714
823.216	5809
