Data from lamp4bck_noballon_dubbel_Subt2__135__935.txt Node

Date: Wed Apr 09 12:19:52 CEST 2025
User: fys-lab-0081
Spectrometer: S04999
Trigger mode: 0
Resolution mode: 1024 pixels
Integration Time (sec): 1.000000E-1
Scans to average: 1
Nonlinearity correction enabled: false
Boxcar width: 0
Baseline correction enabled: true
XAxis mode: Wavelengths
Number of Pixels in Spectrum: 1024
>>>>>Begin Spectral Data<<<<<
336.42	7
336.877	10
337.334	13
337.792	15
338.249	15
338.706	14
339.164	15
339.621	11
340.079	14
340.536	19
340.994	17
341.452	20
341.909	19
342.367	12
342.825	11
343.283	24
343.741	17
344.198	15
344.656	14
345.114	15
345.572	21
346.03	20
346.488	19
346.947	16
347.405	21
347.863	17
348.321	19
348.779	25
349.238	21
349.696	22
350.154	21
350.613	25
351.071	23
351.53	30
351.988	32
352.447	26
352.905	26
353.364	30
353.823	30
354.282	30
354.74	32
355.199	33
355.658	35
356.117	38
356.576	38
357.035	29
357.494	39
357.953	38
358.412	42
358.871	42
359.33	38
359.789	38
360.249	43
360.708	42
361.167	43
361.626	48
362.086	50
362.545	51
363.005	51
363.464	52
363.924	55
364.383	54
364.843	63
365.303	58
365.762	64
366.222	65
366.682	66
367.142	69
367.601	69
368.061	66
368.521	70
368.981	66
369.441	79
369.901	77
370.361	72
370.821	68
371.282	72
371.742	78
372.202	82
372.662	84
373.123	85
373.583	86
374.043	92
374.504	89
374.964	92
375.425	96
375.885	99
376.346	103
376.806	105
377.267	103
377.728	110
378.188	108
378.649	104
379.11	114
379.571	108
380.032	116
380.493	117
380.954	123
381.414	127
381.876	132
382.337	133
382.798	138
383.259	148
383.72	147
384.181	148
384.642	155
385.104	166
385.565	168
386.026	179
386.488	185
386.949	180
387.411	187
387.872	191
388.334	195
388.795	200
389.257	202
389.719	204
390.181	209
390.642	215
391.104	221
391.566	224
392.028	239
392.49	249
392.952	245
393.414	256
393.876	259
394.338	264
394.8	265
395.262	269
395.724	283
396.186	287
396.648	285
397.111	290
397.573	303
398.035	299
398.498	303
398.96	311
399.423	312
399.885	322
400.348	321
400.81	340
401.273	336
401.736	340
402.198	356
402.661	370
403.124	366
403.587	389
404.049	396.5
404.512	404
404.975	411
405.438	406
405.901	421
406.364	415
406.827	418
407.29	414
407.754	415
408.217	427
408.68	417
409.143	431
409.607	434
410.07	434
410.533	436
410.997	449
411.46	447
411.924	463
412.387	469
412.851	487
413.314	498
413.778	500
414.242	506
414.705	539
415.169	529
415.633	528
416.097	532
416.561	543
417.024	557
417.488	530
417.952	538
418.416	529
418.88	535
419.344	538
419.809	536
420.273	550
420.737	544
421.201	555
421.665	569
422.13	568
422.594	580
423.059	595
423.523	595
423.987	605
424.452	630
424.916	651
425.381	672
425.846	673
426.31	680
426.775	689
427.24	697
427.704	691
428.169	694
428.634	701
429.099	690
429.564	692
430.029	703
430.494	698
430.959	709
431.424	697
431.889	715
432.354	730
432.819	714
433.284	744
433.75	745
434.215	776
434.68	771
435.146	792
435.611	822
436.077	852
436.542	864
437.008	897
437.473	915
437.939	913
438.404	935
438.87	950
439.336	929
439.801	938
440.267	958
440.733	968
441.199	973
441.665	973
442.131	991
442.596	970
443.062	1006
443.529	1046
443.995	1050
444.461	1057
444.927	1100
445.393	1097
445.859	1147
446.325	1165
446.792	1231
447.258	1235
447.724	1279
448.191	1335
448.657	1338
449.124	1382
449.59	1367
450.057	1445
450.523	1475
450.99	1495
451.457	1489
451.923	1515
452.39	1499
452.857	1527
453.324	1512
453.791	1535
454.257	1554
454.724	1569
455.191	1557
455.658	1564
456.125	1612
456.592	1576
457.059	1619
457.527	1630
457.994	1692
458.461	1690
458.928	1714
459.396	1714
459.863	1772
460.33	1769
460.798	1787
461.265	1817
461.732	1803
462.2	1841
462.668	1831
463.135	1856
463.603	1799
464.07	1868
464.538	1789
465.006	1844
465.474	1810
465.941	1805
466.409	1818
466.877	1793
467.345	1827
467.813	1799
468.281	1831
468.749	1843
469.217	1829
469.685	1866
470.153	1897
470.621	1880
471.09	1893
471.558	1980
472.026	1960
472.494	2017
472.963	2035
473.431	2078
473.9	2122
474.368	2177
474.837	2195
475.305	2246
475.774	2294
476.242	2347
476.711	2377
477.18	2444
477.648	2414
478.117	2452
478.586	2444
479.055	2437
479.524	2447
479.993	2435
480.462	2431
480.93	2423
481.399	2438
481.869	2459
482.338	2414
482.807	2447
483.276	2454
483.745	2432
484.214	2491
484.684	2527
485.153	2504
485.622	2515
486.092	2591
486.561	2545
487.031	2599
487.5	2667
487.97	2663
488.439	2712
488.909	2779
489.378	2885
489.848	2879
490.318	2954
490.787	3101
491.257	3139
491.727	3156
492.197	3225
492.667	3227
493.137	3259
493.607	3290
494.077	3328
494.547	3287
495.017	3286
495.487	3362
495.957	3434
496.427	3355
496.897	3351
497.368	3397
497.838	3353
498.308	3378
498.779	3397
499.249	3403
499.719	3411
500.19	3440
500.66	3469
501.131	3476
501.602	3528
502.072	3538
502.543	3572
503.014	3663
503.484	3633
503.955	3743
504.426	3857
504.897	3852
505.368	3948
505.838	3999
506.309	4078
506.78	4224
507.251	4336
507.722	4409
508.194	4508
508.665	4574
509.136	4565
509.607	4685
510.078	4770
510.549	4836
511.021	4969
511.492	4925
511.964	5012
512.435	5091
512.906	5023
513.378	5061
513.849	5179
514.321	5189
514.793	5230
515.264	5283
515.736	5358
516.208	5416
516.679	5432
517.151	5509
517.623	5556
518.095	5585
518.567	5612
519.038	5755
519.51	5788
519.982	5848
520.454	5906
520.927	5963
521.399	6022
521.871	6015
522.343	6056
522.815	6173
523.287	6152
523.76	6171
524.232	6282
524.704	6381
525.177	6259
525.649	6307
526.122	6441
526.594	6300
527.067	6432
527.539	6461
528.012	6431
528.484	6436
528.957	6425
529.43	6393
529.903	6413
530.375	6615
530.848	6408
531.321	6476
531.794	6525
532.267	6649
532.74	6472
533.213	6461
533.686	6594
534.159	6554
534.632	6674
535.105	6660
535.578	6811
536.051	6811
536.525	6776
536.998	6778
537.471	6961
537.945	6862
538.418	6904
538.891	6941
539.365	7078
539.838	7109
540.312	7082
540.786	7136
541.259	7185
541.733	7294
542.206	7241
542.68	7110
543.154	7174
543.628	7172
544.101	7298
544.575	7273
545.049	7151
545.523	7323
545.997	7248
546.471	7310
546.945	7307
547.419	7436
547.893	7078
548.367	7167
548.842	7111
549.316	7148
549.79	7167
550.264	7096
550.739	7197
551.213	7235
551.687	7195
552.162	7207
552.636	7141
553.111	7124
553.585	7271
554.06	7078
554.534	7249
555.009	7221
555.484	7329
555.958	7324
556.433	7367
556.908	7507
557.383	7454
557.858	7606
558.333	7618
558.807	7531
559.282	7635
559.757	7810
560.232	7826
560.708	7689
561.183	7708
561.658	7773
562.133	7749
562.608	7677
563.083	7964
563.559	7786
564.034	7795
564.509	7796
564.985	7892
565.46	7856
565.936	7947
566.411	7883
566.887	7755
567.362	7867
567.838	7840
568.313	7888
568.789	7785
569.265	7796
569.74	7859
570.216	7764
570.692	7815
571.168	7792
571.644	7820
572.12	7789
572.596	7803
573.071	7747
573.547	7957
574.024	8080
574.5	8068
574.976	8067
575.452	8177
575.928	8270
576.404	8301
576.881	8511
577.357	8368
577.833	8474
578.31	8703
578.786	8799
579.262	8922
579.739	8846
580.215	9147
580.692	9179
581.169	9065
581.645	9056
582.122	9293
582.598	9255
583.075	9264
583.552	9317
584.029	9311
584.506	9324
584.982	9262
585.459	9451
585.936	9298
586.413	9392
586.89	9573
587.367	9470
587.844	9545
588.321	9445
588.799	9513
589.276	9498
589.753	9641
590.23	9623
590.707	9550
591.185	9577
591.662	9606
592.139	9741
592.617	9814
593.094	9750
593.572	9846
594.049	9964
594.527	9998
595.004	9923
595.482	10145
595.96	10147
596.437	10167
596.915	10365
597.393	10172
597.871	10394
598.349	10300
598.826	10541
599.304	10517
599.782	10638
600.26	10469
600.738	10707
601.216	10682
601.694	10734
602.173	10771
602.651	10900
603.129	10893
603.607	11025
604.085	11067
604.564	11013
605.042	11039
605.52	11043
605.999	11331
606.477	11073
606.956	11033
607.434	11103.5
607.913	11174
608.391	11203
608.87	11145
609.348	10938
609.827	10975
610.306	11101
610.785	11159
611.263	11154
611.742	11055
612.221	10902
612.7	11079
613.179	11141
613.658	10977
614.137	11065
614.616	11113
615.095	10908
615.574	11040
616.053	11040
616.532	10912
617.011	10988
617.491	11052
617.97	11057
618.449	11197
618.928	11269
619.408	11145
619.887	11237
620.367	11347
620.846	11484
621.326	11424
621.805	11560
622.285	11513
622.764	11650
623.244	11698
623.724	11696
624.203	11701
624.683	11474
625.163	11758
625.643	11785
626.123	11683
626.602	11850
627.082	11523
627.562	11541
628.042	11862
628.522	11781
629.002	11734
629.482	11769
629.963	11780
630.443	11739
630.923	11827
631.403	11872
631.883	11746
632.364	11730
632.844	11657
633.324	11732
633.805	11793
634.285	11647
634.766	11559
635.246	11589
635.727	11674
636.207	11715
636.688	11670
637.168	11601
637.649	11462
638.13	11400
638.611	11493
639.091	11519
639.572	11450
640.053	11300
640.534	11388
641.015	11421
641.496	11250
641.977	11397
642.458	11229
642.939	11190
643.42	11264
643.901	11377
644.382	11467
644.863	11431
645.345	11386
645.826	11383
646.307	11414
646.788	11645
647.27	11471
647.751	11505
648.233	11540
648.714	11279
649.196	11611
649.677	11562
650.159	11570
650.64	11423
651.122	11557
651.603	11399
652.085	11555
652.567	11616
653.049	11510
653.53	11435
654.012	11521
654.494	11335
654.976	11455
655.458	11476
655.94	11450
656.422	11608
656.904	11482
657.386	11409
657.868	11495
658.35	11470
658.833	11515
659.315	11487
659.797	11340
660.279	11355
660.762	11494
661.244	11387
661.726	11245
662.209	11180
662.691	11157
663.174	10967
663.656	11074
664.139	11077
664.621	10962
665.104	10811
665.587	10876
666.069	10908
666.552	10886
667.035	10753
667.517	10724
668	10708
668.483	10671
668.966	10625
669.449	10618
669.932	10709
670.415	10871
670.898	10778
671.381	10780
671.864	10821
672.347	10774
672.83	10836
673.313	10866
673.797	10741
674.28	10865
674.763	10863
675.247	10918
675.73	10947
676.213	11063
676.697	11119
677.18	11037
677.664	11015
678.147	11031
678.631	11084
679.114	11168
679.598	11115
680.082	11113
680.565	11087
681.049	11083
681.533	11127
682.017	11275
682.5	11239
682.984	11227
683.468	11148
683.952	10993
684.436	11251
684.92	11180
685.404	11226
685.888	11313
686.372	11210
686.856	11227
687.341	11389
687.825	11328
688.309	11407
688.793	11355
689.278	11166
689.762	11256
690.246	11223
690.731	11308
691.215	11328
691.7	11023
692.184	11114
692.669	11081
693.153	11134
693.638	11041
694.122	11097
694.607	11201
695.092	11026
695.577	11093
696.061	10906
696.546	10902
697.031	10848
697.516	10977
698.001	10973
698.486	10840
698.971	10910
699.456	10688
699.941	10759
700.426	10803
700.911	10902
701.396	10797
701.881	10823
702.366	10736
702.852	10710
703.337	10815
703.822	10820
704.308	10811
704.793	10784
705.278	10734
705.764	10748
706.249	10711
706.735	10792
707.22	10916
707.706	10756
708.191	10869
708.677	10816
709.163	10765
709.648	10906
710.134	11058
710.62	10959
711.106	10918
711.592	11010
712.077	10925
712.563	10691
713.049	10711
713.535	10930
714.021	10867
714.507	10798
714.993	10633
715.479	10733
715.966	10592
716.452	10666
716.938	10728
717.424	10429
717.91	10620
718.397	10437
718.883	10323
719.369	10337
719.856	10295
720.342	10470
720.829	10360
721.315	10397
721.802	10341
722.288	10414
722.775	10112
723.262	9910
723.748	10367
724.235	10299
724.722	10399
725.208	10120
725.695	10063
726.182	10028
726.669	9947
727.156	10064
727.643	9972
728.13	9998
728.617	9898
729.104	9869
729.591	9760
730.078	9867
730.565	9912
731.052	9758
731.539	9776
732.027	9657
732.514	9497
733.001	9584
733.488	9565
733.976	9606
734.463	9619
734.951	9576
735.438	9640
735.926	9482
736.413	9512
736.901	9453
737.388	9619
737.876	9638
738.364	9582
738.851	9598
739.339	9524
739.827	9598
740.314	9377
740.802	9511
741.29	9592
741.778	9522
742.266	9518
742.754	9484
743.242	9486
743.73	9317
744.218	9363
744.706	9339
745.194	9492
745.682	9454
746.17	9455
746.659	9374
747.147	9110
747.635	9218
748.123	9270
748.612	9276
749.1	9259
749.589	9292
750.077	9179
750.566	9089
751.054	9126
751.543	9212
752.031	9060
752.52	9113
753.008	8917
753.497	8859
753.986	8809
754.474	8715
754.963	8762
755.452	8677
755.941	8702
756.43	8723
756.919	8694
757.408	8611
757.896	8607
758.385	8600
758.875	8536
759.364	8526
759.853	8534
760.342	8436
760.831	8595
761.32	8494
761.809	8341
762.299	8386
762.788	8425
763.277	8454
763.767	8387
764.256	8416
764.745	8290
765.235	8372
765.724	8141
766.214	8254
766.703	8264
767.193	8198
767.683	8246
768.172	8101
768.662	8169
769.152	8109
769.641	8098
770.131	7924
770.621	8044
771.111	8027
771.601	8102
772.09	8044
772.58	7904
773.07	7853
773.56	7871
774.05	7723
774.54	7752
775.031	7808
775.521	7817
776.011	7847
776.501	7875
776.991	7685
777.482	7717
777.972	7528
778.462	7562
778.953	7689
779.443	7686
779.933	7689
780.424	7535
780.914	7544
781.405	7510
781.895	7448
782.386	7471
782.877	7505
783.367	7451
783.858	7428
784.349	7420
784.839	7321
785.33	7278
785.821	7180
786.312	7133
786.803	7200
787.293	7282
787.784	7227
788.275	7140
788.766	7033
789.257	7113
789.748	6909
790.24	6862
790.731	6951
791.222	6902
791.713	6932
792.204	6959
792.696	6733
793.187	6769
793.678	6688
794.169	6522
794.661	6692
795.152	6665
795.644	6671
796.135	6683
796.627	6719
797.118	6585
797.61	6501
798.101	6442
798.593	6574
799.085	6510
799.576	6590
800.068	6558
800.56	6566
801.052	6360
801.544	6300
802.035	6303
802.527	6229
803.019	6216
803.511	6222
804.003	6240
804.495	6299
804.987	6251
805.479	6076
805.971	6089
806.464	6077
806.956	5958
807.448	6002
807.94	6051
808.433	6049
808.925	6006
809.417	5933
809.91	5873
810.402	5711
810.894	5755
811.387	5805
811.879	5731
812.372	5782
812.865	5735
813.357	5723
813.85	5640
814.342	5576
814.835	5562
815.328	5604
815.821	5575
816.313	5645
816.806	5722
817.299	5718
817.792	5784
818.285	5701
818.778	5731
819.271	5710
819.764	5602
820.257	5621
820.75	5637
821.243	5676
821.736	5648
822.229	5693
822.722	5681
823.216	5772
