Data from lamp4bck_noballon_dubbel_Subt2__101__901.txt Node

Date: Wed Apr 09 12:19:47 CEST 2025
User: fys-lab-0081
Spectrometer: S04999
Trigger mode: 0
Resolution mode: 1024 pixels
Integration Time (sec): 1.000000E-1
Scans to average: 1
Nonlinearity correction enabled: false
Boxcar width: 0
Baseline correction enabled: true
XAxis mode: Wavelengths
Number of Pixels in Spectrum: 1024
>>>>>Begin Spectral Data<<<<<
336.42	10
336.877	15
337.334	11
337.792	11
338.249	14
338.706	14
339.164	17
339.621	14
340.079	15
340.536	14
340.994	15
341.452	16
341.909	14
342.367	16
342.825	14
343.283	18
343.741	11
344.198	15
344.656	16
345.114	19
345.572	21
346.03	19
346.488	22
346.947	22
347.405	22
347.863	20
348.321	18
348.779	27
349.238	20
349.696	23
350.154	21
350.613	23
351.071	26
351.53	34
351.988	28
352.447	26
352.905	26
353.364	31
353.823	36
354.282	33
354.74	27
355.199	36
355.658	38
356.117	38
356.576	39
357.035	34
357.494	40
357.953	37
358.412	44
358.871	42
359.33	42
359.789	41
360.249	45
360.708	46
361.167	49
361.626	43
362.086	51
362.545	54
363.005	50
363.464	56
363.924	58
364.383	56
364.843	60
365.303	64
365.762	65
366.222	65
366.682	61
367.142	67
367.601	68
368.061	69
368.521	69
368.981	68
369.441	75
369.901	78
370.361	69
370.821	77
371.282	75
371.742	79
372.202	85
372.662	85
373.123	83
373.583	83
374.043	92
374.504	86
374.964	97
375.425	99
375.885	99
376.346	103
376.806	108
377.267	104
377.728	110
378.188	114
378.649	106
379.11	114
379.571	113
380.032	121
380.493	122
380.954	128
381.414	128
381.876	130
382.337	130
382.798	140
383.259	149
383.72	150
384.181	146
384.642	157
385.104	162
385.565	172
386.026	177
386.488	183
386.949	185
387.411	189
387.872	194
388.334	199
388.795	203
389.257	206
389.719	208
390.181	210
390.642	220
391.104	222
391.566	230
392.028	242
392.49	250
392.952	251
393.414	256
393.876	266
394.338	262
394.8	269
395.262	273
395.724	284
396.186	290
396.648	292
397.111	293
397.573	302
398.035	301
398.498	308
398.96	310
399.423	318
399.885	322
400.348	327
400.81	335
401.273	338
401.736	343
402.198	362
402.661	376
403.124	369
403.587	388
404.049	396.5
404.512	405
404.975	419
405.438	406
405.901	420
406.364	419
406.827	422
407.29	419
407.754	417
408.217	419
408.68	422
409.143	437
409.607	439
410.07	439
410.533	438
410.997	451
411.46	457
411.924	467
412.387	473
412.851	485
413.314	501
413.778	501
414.242	510
414.705	537
415.169	528
415.633	533
416.097	533
416.561	543
417.024	558
417.488	532
417.952	543
418.416	534
418.88	543
419.344	540
419.809	540
420.273	556
420.737	541
421.201	561
421.665	572
422.13	566
422.594	583
423.059	594
423.523	607
423.987	611
424.452	631
424.916	654
425.381	674
425.846	677
426.31	683
426.775	695
427.24	702
427.704	699
428.169	701
428.634	705
429.099	693
429.564	698
430.029	707
430.494	705
430.959	708
431.424	697
431.889	722
432.354	732
432.819	723
433.284	752
433.75	750
434.215	776
434.68	779
435.146	792
435.611	827
436.077	857
436.542	867
437.008	900
437.473	916
437.939	918
438.404	937
438.87	960
439.336	942
439.801	949
440.267	960
440.733	968
441.199	975
441.665	970
442.131	1003
442.596	980
443.062	1010
443.529	1045
443.995	1059
444.461	1065
444.927	1109
445.393	1112
445.859	1151
446.325	1169
446.792	1235
447.258	1234
447.724	1285
448.191	1337
448.657	1350
449.124	1391
449.59	1375
450.057	1449
450.523	1474
450.99	1501
451.457	1501
451.923	1522
452.39	1500
452.857	1544
453.324	1520
453.791	1548
454.257	1558
454.724	1577
455.191	1564
455.658	1568
456.125	1623
456.592	1580
457.059	1632
457.527	1634
457.994	1694
458.461	1697
458.928	1725
459.396	1722
459.863	1788
460.33	1783
460.798	1793
461.265	1828
461.732	1806
462.2	1848
462.668	1845
463.135	1858
463.603	1816
464.07	1875
464.538	1799
465.006	1851
465.474	1823
465.941	1814
466.409	1823
466.877	1798
467.345	1839
467.813	1800
468.281	1837
468.749	1858
469.217	1832
469.685	1866
470.153	1897
470.621	1889
471.09	1902
471.558	1986
472.026	1959
472.494	2020
472.963	2043
473.431	2081
473.9	2128
474.368	2188
474.837	2207
475.305	2261
475.774	2306
476.242	2356
476.711	2394
477.18	2454
477.648	2420
478.117	2463
478.586	2448
479.055	2443
479.524	2457
479.993	2449
480.462	2435
480.93	2427
481.399	2453
481.869	2462
482.338	2413
482.807	2453
483.276	2459
483.745	2436
484.214	2498
484.684	2531
485.153	2519
485.622	2528
486.092	2603
486.561	2551
487.031	2620
487.5	2675
487.97	2672
488.439	2718
488.909	2786
489.378	2893
489.848	2896
490.318	2969
490.787	3117
491.257	3152
491.727	3173
492.197	3240
492.667	3237
493.137	3269
493.607	3299
494.077	3348
494.547	3308
495.017	3304
495.487	3382
495.957	3445
496.427	3360
496.897	3367
497.368	3422
497.838	3363
498.308	3394
498.779	3410
499.249	3427
499.719	3408
500.19	3454
500.66	3475
501.131	3493
501.602	3538
502.072	3557
502.543	3579
503.014	3678
503.484	3649
503.955	3752
504.426	3856
504.897	3858
505.368	3959
505.838	4023
506.309	4091
506.78	4235
507.251	4352
507.722	4426
508.194	4527
508.665	4592
509.136	4577
509.607	4701
510.078	4790
510.549	4853
511.021	4983
511.492	4939
511.964	5021
512.435	5107
512.906	5042
513.378	5076
513.849	5205
514.321	5209
514.793	5240
515.264	5305
515.736	5364
516.208	5428
516.679	5442
517.151	5524
517.623	5575
518.095	5600
518.567	5631
519.038	5784
519.51	5805
519.982	5853
520.454	5928
520.927	5990
521.399	6050
521.871	6048
522.343	6074
522.815	6183
523.287	6175
523.76	6189
524.232	6309
524.704	6405
525.177	6293
525.649	6333
526.122	6457
526.594	6319
527.067	6453
527.539	6485
528.012	6466
528.484	6443
528.957	6439
529.43	6421
529.903	6423
530.375	6641
530.848	6432
531.321	6512
531.794	6554
532.267	6672
532.74	6492
533.213	6478
533.686	6617
534.159	6583
534.632	6703
535.105	6689
535.578	6831
536.051	6828
536.525	6807
536.998	6796
537.471	6981
537.945	6879
538.418	6919
538.891	6975
539.365	7109
539.838	7135
540.312	7105
540.786	7157
541.259	7210
541.733	7309
542.206	7263
542.68	7150
543.154	7198
543.628	7187
544.101	7322
544.575	7282
545.049	7170
545.523	7345
545.997	7270
546.471	7329
546.945	7326
547.419	7448
547.893	7103
548.367	7182
548.842	7130
549.316	7169
549.79	7184
550.264	7106
550.739	7218
551.213	7264
551.687	7205
552.162	7228
552.636	7168
553.111	7156
553.585	7290
554.06	7105
554.534	7287
555.009	7237
555.484	7338
555.958	7342
556.433	7384
556.908	7522
557.383	7488
557.858	7624
558.333	7634
558.807	7561
559.282	7660
559.757	7840
560.232	7841
560.708	7713
561.183	7723
561.658	7811
562.133	7776
562.608	7712
563.083	7986
563.559	7802
564.034	7815
564.509	7822
564.985	7896
565.46	7871
565.936	7973
566.411	7901
566.887	7780
567.362	7884
567.838	7853
568.313	7897
568.789	7800
569.265	7824
569.74	7900
570.216	7780
570.692	7844
571.168	7829
571.644	7845
572.12	7802
572.596	7834
573.071	7768
573.547	7982
574.024	8102
574.5	8098
574.976	8078
575.452	8207
575.928	8298
576.404	8323
576.881	8539
577.357	8396
577.833	8500
578.31	8729
578.786	8828
579.262	8940
579.739	8869
580.215	9165
580.692	9202
581.169	9082
581.645	9083
582.122	9323
582.598	9284
583.075	9284
583.552	9344
584.029	9337
584.506	9340
584.982	9292
585.459	9487
585.936	9322
586.413	9418
586.89	9591
587.367	9499
587.844	9573
588.321	9484
588.799	9542
589.276	9507
589.753	9667
590.23	9652
590.707	9589
591.185	9603
591.662	9649
592.139	9763
592.617	9837
593.094	9784
593.572	9873
594.049	10000
594.527	10022
595.004	9948
595.482	10174
595.96	10167
596.437	10193
596.915	10375
597.393	10193
597.871	10407
598.349	10320
598.826	10568
599.304	10547
599.782	10667
600.26	10506
600.738	10742
601.216	10729
601.694	10763
602.173	10790
602.651	10927
603.129	10926
603.607	11064
604.085	11101
604.564	11032
605.042	11070
605.52	11069
605.999	11349
606.477	11095
606.956	11051
607.434	11131
607.913	11211
608.391	11233
608.87	11158
609.348	10955
609.827	11005
610.306	11128
610.785	11177
611.263	11184
611.742	11091
612.221	10924
612.7	11101
613.179	11183
613.658	10992
614.137	11084
614.616	11151
615.095	10943
615.574	11052
616.053	11079
616.532	10940
617.011	11008
617.491	11076
617.97	11082
618.449	11222
618.928	11292
619.408	11173
619.887	11274
620.367	11370
620.846	11496
621.326	11453
621.805	11595
622.285	11549
622.764	11677
623.244	11721
623.724	11722
624.203	11738
624.683	11502
625.163	11794
625.643	11815
626.123	11708
626.602	11870
627.082	11544
627.562	11570
628.042	11888
628.522	11807
629.002	11771
629.482	11804
629.963	11813
630.443	11757
630.923	11842
631.403	11907
631.883	11770
632.364	11758
632.844	11687
633.324	11750
633.805	11812
634.285	11668
634.766	11581
635.246	11618
635.727	11697
636.207	11756
636.688	11701
637.168	11609
637.649	11475
638.13	11410
638.611	11518
639.091	11532
639.572	11465
640.053	11321
640.534	11408
641.015	11439
641.496	11272
641.977	11425
642.458	11250
642.939	11218
643.42	11286
643.901	11396
644.382	11502
644.863	11457
645.345	11432
645.826	11399
646.307	11429
646.788	11662
647.27	11478
647.751	11519
648.233	11565
648.714	11309
649.196	11614
649.677	11582
650.159	11607
650.64	11450
651.122	11592
651.603	11425
652.085	11588
652.567	11638
653.049	11537
653.53	11462
654.012	11549
654.494	11364
654.976	11498
655.458	11498
655.94	11473
656.422	11620
656.904	11507
657.386	11430
657.868	11526
658.35	11484
658.833	11526
659.315	11513
659.797	11359
660.279	11383
660.762	11499
661.244	11407
661.726	11263
662.209	11199
662.691	11178
663.174	10981
663.656	11088
664.139	11103
664.621	10988
665.104	10843
665.587	10890
666.069	10924
666.552	10908
667.035	10790
667.517	10750
668	10732
668.483	10688
668.966	10648
669.449	10648
669.932	10732
670.415	10884
670.898	10783
671.381	10801
671.864	10845
672.347	10796
672.83	10847
673.313	10870
673.797	10762
674.28	10901
674.763	10880
675.247	10945
675.73	10969
676.213	11087
676.697	11135
677.18	11055
677.664	11031
678.147	11048
678.631	11097
679.114	11200
679.598	11134
680.082	11140
680.565	11109
681.049	11107
681.533	11144
682.017	11302
682.5	11253
682.984	11256
683.468	11175
683.952	11019
684.436	11286
684.92	11205
685.404	11259
685.888	11330
686.372	11235
686.856	11251
687.341	11423
687.825	11357
688.309	11431
688.793	11379
689.278	11188
689.762	11284
690.246	11231
690.731	11321
691.215	11347
691.7	11051
692.184	11131
692.669	11094
693.153	11151
693.638	11067
694.122	11106
694.607	11208
695.092	11052
695.577	11115
696.061	10918
696.546	10933
697.031	10875
697.516	10995
698.001	10968
698.486	10850
698.971	10920
699.456	10726
699.941	10781
700.426	10820
700.911	10924
701.396	10809
701.881	10833
702.366	10768
702.852	10721
703.337	10838
703.822	10848
704.308	10837
704.793	10807
705.278	10750
705.764	10766
706.249	10738
706.735	10830
707.22	10932
707.706	10771
708.191	10899
708.677	10844
709.163	10795
709.648	10926
710.134	11077
710.62	10985
711.106	10948
711.592	11039
712.077	10939
712.563	10690
713.049	10733
713.535	10966
714.021	10885
714.507	10821
714.993	10658
715.479	10756
715.966	10608
716.452	10688
716.938	10757
717.424	10462
717.91	10634
718.397	10472
718.883	10342
719.369	10348
719.856	10310
720.342	10485
720.829	10390
721.315	10410
721.802	10351
722.288	10437
722.775	10121
723.262	9911
723.748	10380
724.235	10315
724.722	10416
725.208	10140
725.695	10098
726.182	10072
726.669	9968
727.156	10087
727.643	9981
728.13	10015
728.617	9916
729.104	9873
729.591	9784
730.078	9885
730.565	9927
731.052	9779
731.539	9791
732.027	9666
732.514	9508
733.001	9590
733.488	9596
733.976	9618
734.463	9633
734.951	9588
735.438	9658
735.926	9508
736.413	9530
736.901	9457
737.388	9629
737.876	9638
738.364	9592
738.851	9609
739.339	9547
739.827	9623
740.314	9389
740.802	9523
741.29	9618
741.778	9526
742.266	9537
742.754	9494
743.242	9506
743.73	9309
744.218	9363
744.706	9355
745.194	9530
745.682	9463
746.17	9461
746.659	9397
747.147	9143
747.635	9211
748.123	9289
748.612	9288
749.1	9264
749.589	9319
750.077	9191
750.566	9109
751.054	9144
751.543	9228
752.031	9073
752.52	9132
753.008	8924
753.497	8894
753.986	8819
754.474	8715
754.963	8777
755.452	8689
755.941	8715
756.43	8731
756.919	8704
757.408	8635
757.896	8622
758.385	8617
758.875	8545
759.364	8534
759.853	8559
760.342	8446
760.831	8617
761.32	8512
761.809	8348
762.299	8400
762.788	8444
763.277	8472
763.767	8409
764.256	8438
764.745	8305
765.235	8381
765.724	8151
766.214	8262
766.703	8275
767.193	8208
767.683	8251
768.172	8120
768.662	8177
769.152	8117
769.641	8114
770.131	7928
770.621	8058
771.111	8041
771.601	8114
772.09	8055
772.58	7906
773.07	7872
773.56	7882
774.05	7728
774.54	7759
775.031	7815
775.521	7825
776.011	7844
776.501	7887
776.991	7698
777.482	7722
777.972	7544
778.462	7582
778.953	7703
779.443	7701
779.933	7680
780.424	7566
780.914	7551
781.405	7536
781.895	7455
782.386	7488
782.877	7521
783.367	7469
783.858	7443
784.349	7436
784.839	7335
785.33	7296
785.821	7188
786.312	7147
786.803	7215
787.293	7296
787.784	7258
788.275	7146
788.766	7049
789.257	7118
789.748	6921
790.24	6863
790.731	6963
791.222	6912
791.713	6945
792.204	6957
792.696	6753
793.187	6775
793.678	6706
794.169	6540
794.661	6700
795.152	6673
795.644	6689
796.135	6695
796.627	6726
797.118	6591
797.61	6508
798.101	6447
798.593	6581
799.085	6525
799.576	6595
800.068	6566
800.56	6584
801.052	6364
801.544	6310
802.035	6308
802.527	6244
803.019	6224
803.511	6227
804.003	6255
804.495	6311
804.987	6258
805.479	6099
805.971	6104
806.464	6089
806.956	5949
807.448	5998
807.94	6055
808.433	6063
808.925	6019
809.417	5944
809.91	5887
810.402	5717
810.894	5755
811.387	5806
811.879	5749
812.372	5796
812.865	5750
813.357	5725
813.85	5655
814.342	5583
814.835	5577
815.328	5609
815.821	5569
816.313	5653
816.806	5732
817.299	5726
817.792	5794
818.285	5712
818.778	5741
819.271	5717
819.764	5610
820.257	5633
820.75	5645
821.243	5681
821.736	5657
822.229	5709
822.722	5688
823.216	5779
