Data from lamp4bck_noballon_dubbel_Subt2__111__911.txt Node

Date: Wed Apr 09 12:19:49 CEST 2025
User: fys-lab-0081
Spectrometer: S04999
Trigger mode: 0
Resolution mode: 1024 pixels
Integration Time (sec): 1.000000E-1
Scans to average: 1
Nonlinearity correction enabled: false
Boxcar width: 0
Baseline correction enabled: true
XAxis mode: Wavelengths
Number of Pixels in Spectrum: 1024
>>>>>Begin Spectral Data<<<<<
336.42	7
336.877	12
337.334	12
337.792	14
338.249	15
338.706	13
339.164	10
339.621	12
340.079	17
340.536	18
340.994	15
341.452	14
341.909	20
342.367	14
342.825	12
343.283	16
343.741	19
344.198	16
344.656	16
345.114	18
345.572	22
346.03	18
346.488	23
346.947	17
347.405	22
347.863	22
348.321	24
348.779	28
349.238	24
349.696	23
350.154	22
350.613	22
351.071	24
351.53	29
351.988	31
352.447	27
352.905	26
353.364	29
353.823	35
354.282	31
354.74	28
355.199	34
355.658	38
356.117	39
356.576	32
357.035	34
357.494	35
357.953	40
358.412	43
358.871	41
359.33	44
359.789	37
360.249	40
360.708	48
361.167	47
361.626	49
362.086	47
362.545	51
363.005	57
363.464	55
363.924	59
364.383	56
364.843	59
365.303	62
365.762	65
366.222	65
366.682	63
367.142	66
367.601	65
368.061	71
368.521	64
368.981	70
369.441	76
369.901	75
370.361	69
370.821	69
371.282	77
371.742	81
372.202	80
372.662	83
373.123	80
373.583	85
374.043	96
374.504	87
374.964	88
375.425	97
375.885	100
376.346	104
376.806	106
377.267	98
377.728	109
378.188	115
378.649	109
379.11	109
379.571	105
380.032	121
380.493	123
380.954	126
381.414	125
381.876	131
382.337	127
382.798	140
383.259	141
383.72	147
384.181	149
384.642	158
385.104	160
385.565	173
386.026	177
386.488	182
386.949	179
387.411	190
387.872	194
388.334	199
388.795	198
389.257	204
389.719	208
390.181	211
390.642	216
391.104	219
391.566	225
392.028	237
392.49	248
392.952	247
393.414	259
393.876	262
394.338	264
394.8	268
395.262	272
395.724	281
396.186	291
396.648	286
397.111	294
397.573	304
398.035	297
398.498	308
398.96	310
399.423	314
399.885	316
400.348	324
400.81	337
401.273	339
401.736	339
402.198	357
402.661	374
403.124	369
403.587	386
404.049	391.5
404.512	397
404.975	410
405.438	403
405.901	417
406.364	421
406.827	420
407.29	417
407.754	416
408.217	421
408.68	419
409.143	431
409.607	437
410.07	430
410.533	439
410.997	449
411.46	454
411.924	462
412.387	465
412.851	479
413.314	496
413.778	500
414.242	503
414.705	535
415.169	524
415.633	531
416.097	532
416.561	542
417.024	551
417.488	530
417.952	542
418.416	530
418.88	536
419.344	535
419.809	535
420.273	551
420.737	543
421.201	556
421.665	568
422.13	560
422.594	579
423.059	596
423.523	605
423.987	608
424.452	632
424.916	646
425.381	669
425.846	673
426.31	686
426.775	695
427.24	698
427.704	692
428.169	694
428.634	705
429.099	695
429.564	688
430.029	701
430.494	702
430.959	704
431.424	700
431.889	713
432.354	728
432.819	713
433.284	751
433.75	750
434.215	773
434.68	775
435.146	791
435.611	823
436.077	848
436.542	860
437.008	896
437.473	911
437.939	911
438.404	932
438.87	955
439.336	933
439.801	941
440.267	960
440.733	969
441.199	972
441.665	974
442.131	996
442.596	973
443.062	1010
443.529	1047
443.995	1049
444.461	1051
444.927	1100
445.393	1099
445.859	1150
446.325	1168
446.792	1235
447.258	1230
447.724	1279
448.191	1330
448.657	1337
449.124	1386
449.59	1371
450.057	1447
450.523	1468
450.99	1497
451.457	1494
451.923	1516
452.39	1497
452.857	1532
453.324	1515
453.791	1538
454.257	1560
454.724	1571
455.191	1556
455.658	1554
456.125	1611
456.592	1575
457.059	1625
457.527	1628
457.994	1687
458.461	1694
458.928	1719
459.396	1714
459.863	1777
460.33	1772
460.798	1783
461.265	1812
461.732	1806
462.2	1839
462.668	1837
463.135	1851
463.603	1800
464.07	1871
464.538	1791
465.006	1850
465.474	1815
465.941	1811
466.409	1814
466.877	1790
467.345	1828
467.813	1791
468.281	1834
468.749	1843
469.217	1828
469.685	1864
470.153	1899
470.621	1879
471.09	1897
471.558	1982
472.026	1952
472.494	2018
472.963	2036
473.431	2080
473.9	2120
474.368	2183
474.837	2193
475.305	2246
475.774	2297
476.242	2347
476.711	2377
477.18	2443
477.648	2416
478.117	2456
478.586	2441
479.055	2438
479.524	2450
479.993	2439
480.462	2423
480.93	2420
481.399	2447
481.869	2460
482.338	2403
482.807	2449
483.276	2450
483.745	2427
484.214	2487
484.684	2527
485.153	2510
485.622	2514
486.092	2588
486.561	2549
487.031	2603
487.5	2668
487.97	2663
488.439	2709
488.909	2775
489.378	2888
489.848	2882
490.318	2953
490.787	3101
491.257	3140
491.727	3159
492.197	3230
492.667	3226
493.137	3254
493.607	3282
494.077	3334
494.547	3297
495.017	3280
495.487	3360
495.957	3438
496.427	3349
496.897	3348
497.368	3398
497.838	3345
498.308	3374
498.779	3392
499.249	3411
499.719	3403
500.19	3435
500.66	3472
501.131	3468
501.602	3527
502.072	3539
502.543	3564
503.014	3672
503.484	3631
503.955	3741
504.426	3840
504.897	3851
505.368	3947
505.838	4004
506.309	4077
506.78	4221
507.251	4336
507.722	4413
508.194	4506
508.665	4579
509.136	4559
509.607	4689
510.078	4772
510.549	4833
511.021	4969
511.492	4930
511.964	5015
512.435	5080
512.906	5028
513.378	5060
513.849	5177
514.321	5180
514.793	5220
515.264	5281
515.736	5364
516.208	5396
516.679	5424
517.151	5505
517.623	5549
518.095	5585
518.567	5615
519.038	5759
519.51	5779
519.982	5834
520.454	5895
520.927	5968
521.399	6020
521.871	6017
522.343	6049
522.815	6171
523.287	6151
523.76	6167
524.232	6288
524.704	6380
525.177	6268
525.649	6300
526.122	6424
526.594	6307
527.067	6432
527.539	6459
528.012	6434
528.484	6428
528.957	6416
529.43	6390
529.903	6407
530.375	6612
530.848	6401
531.321	6480
531.794	6521
532.267	6647
532.74	6465
533.213	6450
533.686	6592
534.159	6560
534.632	6677
535.105	6656
535.578	6794
536.051	6806
536.525	6780
536.998	6782
537.471	6958
537.945	6853
538.418	6899
538.891	6948
539.365	7086
539.838	7102
540.312	7074
540.786	7131
541.259	7185
541.733	7292
542.206	7238
542.68	7114
543.154	7171
543.628	7164
544.101	7299
544.575	7270
545.049	7153
545.523	7318
545.997	7234
546.471	7303
546.945	7301
547.419	7429
547.893	7079
548.367	7169
548.842	7114
549.316	7139
549.79	7161
550.264	7091
550.739	7189
551.213	7234
551.687	7181
552.162	7201
552.636	7139
553.111	7139
553.585	7262
554.06	7080
554.534	7254
555.009	7215
555.484	7315
555.958	7323
556.433	7354
556.908	7502
557.383	7461
557.858	7600
558.333	7601
558.807	7536
559.282	7634
559.757	7809
560.232	7819
560.708	7682
561.183	7700
561.658	7784
562.133	7748
562.608	7674
563.083	7964
563.559	7780
564.034	7787
564.509	7802
564.985	7878
565.46	7836
565.936	7938
566.411	7870
566.887	7742
567.362	7865
567.838	7832
568.313	7868
568.789	7775
569.265	7802
569.74	7867
570.216	7756
570.692	7812
571.168	7791
571.644	7815
572.12	7778
572.596	7804
573.071	7737
573.547	7946
574.024	8082
574.5	8069
574.976	8068
575.452	8180
575.928	8271
576.404	8294
576.881	8504
577.357	8362
577.833	8467
578.31	8701
578.786	8789
579.262	8920
579.739	8837
580.215	9143
580.692	9177
581.169	9052
581.645	9060
582.122	9291
582.598	9261
583.075	9261
583.552	9323
584.029	9315
584.506	9308
584.982	9272
585.459	9447
585.936	9297
586.413	9400
586.89	9571
587.367	9461
587.844	9534
588.321	9442
588.799	9511
589.276	9489
589.753	9634
590.23	9618
590.707	9568
591.185	9579
591.662	9616
592.139	9732
592.617	9805
593.094	9754
593.572	9854
594.049	9963
594.527	9981
595.004	9911
595.482	10141
595.96	10136
596.437	10161
596.915	10344
597.393	10165
597.871	10387
598.349	10297
598.826	10544
599.304	10509
599.782	10640
600.26	10465
600.738	10715
601.216	10689
601.694	10729
602.173	10754
602.651	10899
603.129	10896
603.607	11022
604.085	11070
604.564	11007
605.042	11028
605.52	11041
605.999	11332
606.477	11080
606.956	11019
607.434	11101.5
607.913	11184
608.391	11208
608.87	11126
609.348	10926
609.827	10980
610.306	11088
610.785	11136
611.263	11154
611.742	11055
612.221	10885
612.7	11066
613.179	11133
613.658	10972
614.137	11048
614.616	11093
615.095	10893
615.574	11029
616.053	11039
616.532	10896
617.011	10978
617.491	11035
617.97	11047
618.449	11180
618.928	11268
619.408	11140
619.887	11245
620.367	11336
620.846	11472
621.326	11424
621.805	11563
622.285	11507
622.764	11647
623.244	11692
623.724	11694
624.203	11696
624.683	11468
625.163	11763
625.643	11776
626.123	11675
626.602	11839
627.082	11513
627.562	11540
628.042	11851
628.522	11768
629.002	11738
629.482	11759
629.963	11779
630.443	11715
630.923	11821
631.403	11868
631.883	11727
632.364	11730
632.844	11652
633.324	11720
633.805	11773
634.285	11630
634.766	11536
635.246	11569
635.727	11664
636.207	11704
636.688	11658
637.168	11583
637.649	11440
638.13	11377
638.611	11489
639.091	11511
639.572	11435
640.053	11298
640.534	11369
641.015	11401
641.496	11251
641.977	11385
642.458	11212
642.939	11177
643.42	11250
643.901	11364
644.382	11473
644.863	11419
645.345	11392
645.826	11374
646.307	11399
646.788	11627
647.27	11460
647.751	11490
648.233	11534
648.714	11275
649.196	11590
649.677	11563
650.159	11570
650.64	11419
651.122	11560
651.603	11384
652.085	11559
652.567	11599
653.049	11505
653.53	11437
654.012	11512
654.494	11313
654.976	11451
655.458	11467
655.94	11429
656.422	11580
656.904	11477
657.386	11393
657.868	11481
658.35	11452
658.833	11501
659.315	11482
659.797	11320
660.279	11347
660.762	11470
661.244	11379
661.726	11230
662.209	11172
662.691	11159
663.174	10958
663.656	11058
664.139	11070
664.621	10952
665.104	10818
665.587	10858
666.069	10897
666.552	10882
667.035	10753
667.517	10711
668	10703
668.483	10661
668.966	10620
669.449	10618
669.932	10699
670.415	10866
670.898	10753
671.381	10770
671.864	10801
672.347	10772
672.83	10823
673.313	10846
673.797	10720
674.28	10840
674.763	10852
675.247	10917
675.73	10950
676.213	11046
676.697	11103
677.18	11026
677.664	11021
678.147	11012
678.631	11068
679.114	11165
679.598	11113
680.082	11114
680.565	11078
681.049	11070
681.533	11127
682.017	11269
682.5	11227
682.984	11217
683.468	11142
683.952	10998
684.436	11250
684.92	11164
685.404	11221
685.888	11302
686.372	11199
686.856	11226
687.341	11388
687.825	11319
688.309	11407
688.793	11354
689.278	11154
689.762	11245
690.246	11195
690.731	11291
691.215	11332
691.7	11018
692.184	11099
692.669	11057
693.153	11119
693.638	11034
694.122	11078
694.607	11171
695.092	11021
695.577	11083
696.061	10885
696.546	10891
697.031	10849
697.516	10963
698.001	10961
698.486	10825
698.971	10903
699.456	10685
699.941	10738
700.426	10793
700.911	10902
701.396	10784
701.881	10814
702.366	10730
702.852	10696
703.337	10815
703.822	10830
704.308	10806
704.793	10786
705.278	10756
705.764	10733
706.249	10709
706.735	10797
707.22	10920
707.706	10743
708.191	10859
708.677	10806
709.163	10761
709.648	10890
710.134	11050
710.62	10957
711.106	10919
711.592	10998
712.077	10920
712.563	10672
713.049	10692
713.535	10933
714.021	10862
714.507	10779
714.993	10626
715.479	10726
715.966	10595
716.452	10666
716.938	10720
717.424	10424
717.91	10616
718.397	10430
718.883	10319
719.369	10325
719.856	10277
720.342	10443
720.829	10346
721.315	10377
721.802	10329
722.288	10412
722.775	10103
723.262	9886
723.748	10343
724.235	10284
724.722	10386
725.208	10115
725.695	10067
726.182	10035
726.669	9937
727.156	10051
727.643	9956
728.13	9985
728.617	9875
729.104	9862
729.591	9767
730.078	9857
730.565	9903
731.052	9753
731.539	9770
732.027	9646
732.514	9487
733.001	9556
733.488	9564
733.976	9596
734.463	9622
734.951	9570
735.438	9635
735.926	9474
736.413	9494
736.901	9443
737.388	9596
737.876	9620
738.364	9574
738.851	9577
739.339	9528
739.827	9586
740.314	9366
740.802	9488
741.29	9587
741.778	9503
742.266	9503
742.754	9464
743.242	9472
743.73	9296
744.218	9338
744.706	9321
745.194	9502
745.682	9452
746.17	9439
746.659	9368
747.147	9109
747.635	9202
748.123	9258
748.612	9279
749.1	9238
749.589	9283
750.077	9167
750.566	9086
751.054	9108
751.543	9205
752.031	9062
752.52	9101
753.008	8912
753.497	8866
753.986	8803
754.474	8698
754.963	8755
755.452	8662
755.941	8686
756.43	8709
756.919	8682
757.408	8591
757.896	8592
758.385	8593
758.875	8520
759.364	8516
759.853	8527
760.342	8416
760.831	8575
761.32	8485
761.809	8326
762.299	8379
762.788	8420
763.277	8449
763.767	8377
764.256	8418
764.745	8284
765.235	8359
765.724	8119
766.214	8234
766.703	8242
767.193	8186
767.683	8235
768.172	8091
768.662	8151
769.152	8089
769.641	8091
770.131	7899
770.621	8032
771.111	8016
771.601	8093
772.09	8026
772.58	7888
773.07	7845
773.56	7869
774.05	7707
774.54	7753
775.031	7799
775.521	7812
776.011	7816
776.501	7855
776.991	7676
777.482	7696
777.972	7518
778.462	7571
778.953	7691
779.443	7675
779.933	7664
780.424	7536
780.914	7533
781.405	7504
781.895	7425
782.386	7471
782.877	7508
783.367	7447
783.858	7417
784.349	7415
784.839	7317
785.33	7279
785.821	7178
786.312	7133
786.803	7187
787.293	7277
787.784	7232
788.275	7130
788.766	7028
789.257	7094
789.748	6894
790.24	6845
790.731	6937
791.222	6886
791.713	6912
792.204	6937
792.696	6720
793.187	6751
793.678	6678
794.169	6504
794.661	6682
795.152	6666
795.644	6661
796.135	6677
796.627	6711
797.118	6577
797.61	6490
798.101	6424
798.593	6566
799.085	6501
799.576	6582
800.068	6547
800.56	6558
801.052	6354
801.544	6294
802.035	6292
802.527	6215
803.019	6209
803.511	6221
804.003	6243
804.495	6306
804.987	6237
805.479	6068
805.971	6079
806.464	6080
806.956	5941
807.448	5987
807.94	6050
808.433	6033
808.925	5993
809.417	5926
809.91	5868
810.402	5701
810.894	5738
811.387	5796
811.879	5733
812.372	5784
812.865	5735
813.357	5710
813.85	5633
814.342	5571
814.835	5562
815.328	5588
815.821	5557
816.313	5633
816.806	5716
817.299	5716
817.792	5776
818.285	5696
818.778	5731
819.271	5704
819.764	5591
820.257	5601
820.75	5633
821.243	5663
821.736	5640
822.229	5687
822.722	5672
823.216	5766
