Data from lamp4bck_noballon_dubbel_Subt2__178__978.txt Node

Date: Wed Apr 09 12:19:57 CEST 2025
User: fys-lab-0081
Spectrometer: S04999
Trigger mode: 0
Resolution mode: 1024 pixels
Integration Time (sec): 1.000000E-1
Scans to average: 1
Nonlinearity correction enabled: false
Boxcar width: 0
Baseline correction enabled: true
XAxis mode: Wavelengths
Number of Pixels in Spectrum: 1024
>>>>>Begin Spectral Data<<<<<
336.42	8
336.877	17
337.334	12
337.792	9
338.249	17
338.706	13
339.164	15
339.621	8
340.079	14
340.536	14
340.994	18
341.452	17
341.909	22
342.367	12
342.825	13
343.283	18
343.741	14
344.198	15
344.656	17
345.114	14
345.572	20
346.03	17
346.488	18
346.947	20
347.405	20
347.863	21
348.321	18
348.779	27
349.238	23
349.696	25
350.154	20
350.613	30
351.071	25
351.53	33
351.988	29
352.447	32
352.905	31
353.364	30
353.823	32
354.282	34
354.74	28
355.199	38
355.658	41
356.117	36
356.576	36
357.035	34
357.494	40
357.953	41
358.412	44
358.871	41
359.33	40
359.789	40
360.249	45
360.708	44
361.167	51
361.626	51
362.086	47
362.545	51
363.005	47
363.464	55
363.924	60
364.383	59
364.843	61
365.303	65
365.762	65
366.222	66
366.682	67
367.142	71
367.601	69
368.061	67
368.521	69
368.981	69
369.441	74
369.901	77
370.361	74
370.821	73
371.282	78
371.742	76
372.202	82
372.662	84
373.123	81
373.583	87
374.043	90
374.504	83
374.964	91
375.425	98
375.885	99
376.346	105
376.806	106
377.267	100
377.728	112
378.188	112
378.649	108
379.11	112
379.571	112
380.032	120
380.493	116
380.954	126
381.414	124
381.876	129
382.337	130
382.798	138
383.259	143
383.72	151
384.181	155
384.642	157
385.104	164
385.565	170
386.026	177
386.488	187
386.949	181
387.411	183
387.872	192
388.334	195
388.795	200
389.257	203
389.719	207
390.181	210
390.642	215
391.104	224
391.566	228
392.028	240
392.49	249
392.952	247
393.414	258
393.876	267
394.338	265
394.8	268
395.262	272
395.724	282
396.186	286
396.648	286
397.111	292
397.573	304
398.035	299
398.498	309
398.96	311
399.423	316
399.885	321
400.348	322
400.81	338
401.273	338
401.736	341
402.198	359
402.661	372
403.124	367
403.587	387
404.049	397.5
404.512	408
404.975	409
405.438	405
405.901	418
406.364	413
406.827	420
407.29	420
407.754	417
408.217	419
408.68	419
409.143	433
409.607	437
410.07	437
410.533	437
410.997	447
411.46	455
411.924	462
412.387	472
412.851	487
413.314	501
413.778	496
414.242	510
414.705	531
415.169	527
415.633	531
416.097	534
416.561	537
417.024	553
417.488	528
417.952	539
418.416	531
418.88	536
419.344	535
419.809	538
420.273	551
420.737	540
421.201	556
421.665	575
422.13	566
422.594	579
423.059	593
423.523	608
423.987	608
424.452	632
424.916	654
425.381	669
425.846	670
426.31	678
426.775	698
427.24	706
427.704	694
428.169	696
428.634	703
429.099	702
429.564	688
430.029	708
430.494	701
430.959	700
431.424	695
431.889	721
432.354	730
432.819	718
433.284	746
433.75	749
434.215	771
434.68	779
435.146	796
435.611	822
436.077	854
436.542	865
437.008	902
437.473	913
437.939	914
438.404	936
438.87	954
439.336	939
439.801	944
440.267	961
440.733	972
441.199	975
441.665	975
442.131	997
442.596	969
443.062	1009
443.529	1042
443.995	1055
444.461	1051
444.927	1101
445.393	1104
445.859	1150
446.325	1167
446.792	1235
447.258	1230
447.724	1275
448.191	1333
448.657	1344
449.124	1380
449.59	1372
450.057	1442
450.523	1478
450.99	1497
451.457	1494
451.923	1515
452.39	1499
452.857	1542
453.324	1511
453.791	1536
454.257	1560
454.724	1569
455.191	1557
455.658	1568
456.125	1615
456.592	1575
457.059	1628
457.527	1638
457.994	1695
458.461	1691
458.928	1722
459.396	1719
459.863	1783
460.33	1773
460.798	1786
461.265	1821
461.732	1810
462.2	1841
462.668	1840
463.135	1852
463.603	1808
464.07	1870
464.538	1793
465.006	1851
465.474	1814
465.941	1813
466.409	1812
466.877	1795
467.345	1831
467.813	1795
468.281	1836
468.749	1842
469.217	1839
469.685	1868
470.153	1898
470.621	1878
471.09	1897
471.558	1985
472.026	1958
472.494	2020
472.963	2038
473.431	2077
473.9	2124
474.368	2183
474.837	2201
475.305	2252
475.774	2292
476.242	2352
476.711	2380
477.18	2447
477.648	2417
478.117	2461
478.586	2447
479.055	2440
479.524	2456
479.993	2450
480.462	2428
480.93	2424
481.399	2447
481.869	2462
482.338	2411
482.807	2454
483.276	2449
483.745	2429
484.214	2496
484.684	2530
485.153	2508
485.622	2518
486.092	2588
486.561	2542
487.031	2618
487.5	2668
487.97	2664
488.439	2705
488.909	2784
489.378	2886
489.848	2886
490.318	2956
490.787	3104
491.257	3143
491.727	3166
492.197	3232
492.667	3224
493.137	3260
493.607	3289
494.077	3351
494.547	3305
495.017	3297
495.487	3372
495.957	3440
496.427	3354
496.897	3352
497.368	3408
497.838	3357
498.308	3378
498.779	3404
499.249	3413
499.719	3404
500.19	3444
500.66	3471
501.131	3479
501.602	3533
502.072	3538
502.543	3573
503.014	3665
503.484	3647
503.955	3747
504.426	3846
504.897	3858
505.368	3954
505.838	4012
506.309	4072
506.78	4222
507.251	4334
507.722	4411
508.194	4510
508.665	4574
509.136	4563
509.607	4699
510.078	4789
510.549	4843
511.021	4978
511.492	4927
511.964	5009
512.435	5098
512.906	5035
513.378	5062
513.849	5188
514.321	5195
514.793	5238
515.264	5286
515.736	5355
516.208	5418
516.679	5430
517.151	5522
517.623	5567
518.095	5599
518.567	5615
519.038	5765
519.51	5796
519.982	5849
520.454	5915
520.927	5989
521.399	6022
521.871	6030
522.343	6052
522.815	6180
523.287	6162
523.76	6181
524.232	6284
524.704	6386
525.177	6268
525.649	6322
526.122	6440
526.594	6305
527.067	6443
527.539	6472
528.012	6439
528.484	6437
528.957	6431
529.43	6399
529.903	6413
530.375	6618
530.848	6410
531.321	6492
531.794	6538
532.267	6659
532.74	6475
533.213	6470
533.686	6590
534.159	6570
534.632	6680
535.105	6679
535.578	6814
536.051	6817
536.525	6788
536.998	6785
537.471	6977
537.945	6862
538.418	6925
538.891	6960
539.365	7096
539.838	7117
540.312	7095
540.786	7141
541.259	7194
541.733	7303
542.206	7247
542.68	7130
543.154	7178
543.628	7168
544.101	7302
544.575	7286
545.049	7167
545.523	7326
545.997	7237
546.471	7314
546.945	7321
547.419	7439
547.893	7089
548.367	7169
548.842	7138
549.316	7157
549.79	7177
550.264	7095
550.739	7204
551.213	7256
551.687	7188
552.162	7224
552.636	7148
553.111	7128
553.585	7283
554.06	7088
554.534	7263
555.009	7232
555.484	7319
555.958	7329
556.433	7367
556.908	7522
557.383	7462
557.858	7607
558.333	7617
558.807	7553
559.282	7644
559.757	7820
560.232	7831
560.708	7697
561.183	7706
561.658	7793
562.133	7764
562.608	7687
563.083	7972
563.559	7787
564.034	7796
564.509	7808
564.985	7887
565.46	7855
565.936	7952
566.411	7887
566.887	7754
567.362	7874
567.838	7835
568.313	7888
568.789	7787
569.265	7817
569.74	7882
570.216	7770
570.692	7819
571.168	7792
571.644	7824
572.12	7787
572.596	7816
573.071	7758
573.547	7958
574.024	8091
574.5	8083
574.976	8075
575.452	8188
575.928	8267
576.404	8311
576.881	8533
577.357	8373
577.833	8489
578.31	8723
578.786	8804
579.262	8936
579.739	8850
580.215	9158
580.692	9181
581.169	9070
581.645	9062
582.122	9296
582.598	9263
583.075	9281
583.552	9326
584.029	9318
584.506	9321
584.982	9288
585.459	9464
585.936	9307
586.413	9403
586.89	9583
587.367	9475
587.844	9556
588.321	9459
588.799	9512
589.276	9495
589.753	9648
590.23	9643
590.707	9570
591.185	9580
591.662	9615
592.139	9742
592.617	9819
593.094	9772
593.572	9856
594.049	9974
594.527	9998
595.004	9925
595.482	10169
595.96	10145
596.437	10174
596.915	10359
597.393	10179
597.871	10404
598.349	10310
598.826	10553
599.304	10534
599.782	10649
600.26	10489
600.738	10718
601.216	10682
601.694	10738
602.173	10789
602.651	10905
603.129	10898
603.607	11040
604.085	11091
604.564	11022
605.042	11046
605.52	11043
605.999	11333
606.477	11079
606.956	11034
607.434	11116
607.913	11198
608.391	11214
608.87	11141
609.348	10940
609.827	10994
610.306	11106
610.785	11153
611.263	11166
611.742	11062
612.221	10901
612.7	11076
613.179	11155
613.658	10989
614.137	11083
614.616	11117
615.095	10919
615.574	11036
616.053	11063
616.532	10918
617.011	10990
617.491	11042
617.97	11066
618.449	11212
618.928	11275
619.408	11157
619.887	11261
620.367	11359
620.846	11485
621.326	11448
621.805	11563
622.285	11526
622.764	11662
623.244	11706
623.724	11698
624.203	11717
624.683	11491
625.163	11781
625.643	11785
626.123	11694
626.602	11862
627.082	11534
627.562	11545
628.042	11873
628.522	11796
629.002	11751
629.482	11789
629.963	11792
630.443	11734
630.923	11832
631.403	11877
631.883	11763
632.364	11750
632.844	11672
633.324	11746
633.805	11806
634.285	11644
634.766	11549
635.246	11595
635.727	11682
636.207	11731
636.688	11676
637.168	11610
637.649	11478
638.13	11401
638.611	11500
639.091	11521
639.572	11454
640.053	11322
640.534	11397
641.015	11426
641.496	11258
641.977	11422
642.458	11241
642.939	11196
643.42	11277
643.901	11370
644.382	11486
644.863	11436
645.345	11413
645.826	11394
646.307	11420
646.788	11641
647.27	11486
647.751	11524
648.233	11561
648.714	11298
649.196	11606
649.677	11571
650.159	11591
650.64	11430
651.122	11571
651.603	11415
652.085	11574
652.567	11614
653.049	11527
653.53	11444
654.012	11524
654.494	11336
654.976	11470
655.458	11493
655.94	11458
656.422	11597
656.904	11507
657.386	11403
657.868	11501
658.35	11463
658.833	11520
659.315	11503
659.797	11346
660.279	11356
660.762	11487
661.244	11391
661.726	11238
662.209	11195
662.691	11175
663.174	10976
663.656	11063
664.139	11090
664.621	10968
665.104	10833
665.587	10889
666.069	10919
666.552	10895
667.035	10776
667.517	10731
668	10717
668.483	10683
668.966	10622
669.449	10626
669.932	10707
670.415	10873
670.898	10787
671.381	10792
671.864	10821
672.347	10785
672.83	10841
673.313	10852
673.797	10744
674.28	10874
674.763	10870
675.247	10934
675.73	10950
676.213	11082
676.697	11114
677.18	11037
677.664	11014
678.147	11042
678.631	11083
679.114	11194
679.598	11118
680.082	11128
680.565	11094
681.049	11090
681.533	11129
682.017	11287
682.5	11228
682.984	11249
683.468	11149
683.952	11006
684.436	11257
684.92	11175
685.404	11243
685.888	11319
686.372	11210
686.856	11231
687.341	11406
687.825	11340
688.309	11416
688.793	11367
689.278	11172
689.762	11273
690.246	11225
690.731	11304
691.215	11336
691.7	11036
692.184	11110
692.669	11083
693.153	11146
693.638	11052
694.122	11102
694.607	11212
695.092	11042
695.577	11093
696.061	10905
696.546	10907
697.031	10872
697.516	10995
698.001	10981
698.486	10847
698.971	10916
699.456	10698
699.941	10762
700.426	10796
700.911	10926
701.396	10804
701.881	10833
702.366	10754
702.852	10705
703.337	10816
703.822	10840
704.308	10818
704.793	10807
705.278	10746
705.764	10748
706.249	10726
706.735	10819
707.22	10924
707.706	10750
708.191	10881
708.677	10835
709.163	10786
709.648	10911
710.134	11064
710.62	10967
711.106	10935
711.592	11012
712.077	10928
712.563	10684
713.049	10700
713.535	10959
714.021	10868
714.507	10799
714.993	10637
715.479	10742
715.966	10603
716.452	10675
716.938	10733
717.424	10451
717.91	10623
718.397	10454
718.883	10333
719.369	10341
719.856	10297
720.342	10472
720.829	10378
721.315	10405
721.802	10341
722.288	10418
722.775	10131
723.262	9904
723.748	10364
724.235	10309
724.722	10421
725.208	10121
725.695	10086
726.182	10054
726.669	9955
727.156	10072
727.643	9981
728.13	9995
728.617	9908
729.104	9872
729.591	9786
730.078	9869
730.565	9916
731.052	9764
731.539	9789
732.027	9665
732.514	9503
733.001	9591
733.488	9585
733.976	9626
734.463	9621
734.951	9579
735.438	9655
735.926	9485
736.413	9524
736.901	9458
737.388	9614
737.876	9635
738.364	9587
738.851	9610
739.339	9532
739.827	9608
740.314	9390
740.802	9507
741.29	9606
741.778	9503
742.266	9520
742.754	9495
743.242	9500
743.73	9310
744.218	9363
744.706	9345
745.194	9521
745.682	9459
746.17	9466
746.659	9378
747.147	9124
747.635	9216
748.123	9292
748.612	9296
749.1	9254
749.589	9303
750.077	9186
750.566	9097
751.054	9137
751.543	9223
752.031	9077
752.52	9117
753.008	8928
753.497	8878
753.986	8818
754.474	8712
754.963	8780
755.452	8681
755.941	8708
756.43	8735
756.919	8704
757.408	8624
757.896	8621
758.385	8598
758.875	8538
759.364	8521
759.853	8553
760.342	8425
760.831	8607
761.32	8513
761.809	8345
762.299	8389
762.788	8439
763.277	8464
763.767	8399
764.256	8435
764.745	8297
765.235	8379
765.724	8145
766.214	8247
766.703	8271
767.193	8200
767.683	8253
768.172	8110
768.662	8171
769.152	8102
769.641	8107
770.131	7922
770.621	8059
771.111	8025
771.601	8106
772.09	8048
772.58	7900
773.07	7870
773.56	7881
774.05	7730
774.54	7770
775.031	7815
775.521	7829
776.011	7842
776.501	7891
776.991	7690
777.482	7730
777.972	7537
778.462	7573
778.953	7697
779.443	7694
779.933	7690
780.424	7550
780.914	7555
781.405	7526
781.895	7451
782.386	7488
782.877	7529
783.367	7447
783.858	7433
784.349	7437
784.839	7342
785.33	7287
785.821	7186
786.312	7153
786.803	7211
787.293	7272
787.784	7238
788.275	7145
788.766	7036
789.257	7108
789.748	6916
790.24	6855
790.731	6947
791.222	6903
791.713	6925
792.204	6960
792.696	6736
793.187	6782
793.678	6696
794.169	6539
794.661	6691
795.152	6673
795.644	6676
796.135	6689
796.627	6711
797.118	6595
797.61	6512
798.101	6462
798.593	6572
799.085	6522
799.576	6594
800.068	6547
800.56	6568
801.052	6375
801.544	6312
802.035	6305
802.527	6236
803.019	6217
803.511	6226
804.003	6252
804.495	6307
804.987	6249
805.479	6084
805.971	6093
806.464	6089
806.956	5956
807.448	5999
807.94	6064
808.433	6051
808.925	6019
809.417	5938
809.91	5885
810.402	5710
810.894	5748
811.387	5807
811.879	5747
812.372	5793
812.865	5746
813.357	5725
813.85	5648
814.342	5586
814.835	5574
815.328	5597
815.821	5561
816.313	5648
816.806	5726
817.299	5725
817.792	5789
818.285	5712
818.778	5746
819.271	5717
819.764	5612
820.257	5622
820.75	5642
821.243	5695
821.736	5645
822.229	5702
822.722	5689
823.216	5777
