Data from lamp4bck_noballon_dubbel_Subt2__103__903.txt Node

Date: Wed Apr 09 12:19:48 CEST 2025
User: fys-lab-0081
Spectrometer: S04999
Trigger mode: 0
Resolution mode: 1024 pixels
Integration Time (sec): 1.000000E-1
Scans to average: 1
Nonlinearity correction enabled: false
Boxcar width: 0
Baseline correction enabled: true
XAxis mode: Wavelengths
Number of Pixels in Spectrum: 1024
>>>>>Begin Spectral Data<<<<<
336.42	8
336.877	11
337.334	13
337.792	14
338.249	13
338.706	17
339.164	13
339.621	15
340.079	14
340.536	13
340.994	12
341.452	14
341.909	19
342.367	13
342.825	11
343.283	18
343.741	15
344.198	18
344.656	13
345.114	12
345.572	20
346.03	15
346.488	19
346.947	20
347.405	18
347.863	20
348.321	18
348.779	25
349.238	20
349.696	26
350.154	22
350.613	22
351.071	26
351.53	31
351.988	32
352.447	26
352.905	25
353.364	30
353.823	32
354.282	32
354.74	25
355.199	32
355.658	38
356.117	37
356.576	36
357.035	35
357.494	38
357.953	42
358.412	42
358.871	42
359.33	39
359.789	40
360.249	44
360.708	43
361.167	46
361.626	44
362.086	46
362.545	51
363.005	52
363.464	47
363.924	57
364.383	60
364.843	60
365.303	61
365.762	63
366.222	64
366.682	63
367.142	69
367.601	68
368.061	65
368.521	72
368.981	69
369.441	75
369.901	74
370.361	73
370.821	74
371.282	75
371.742	75
372.202	80
372.662	86
373.123	85
373.583	84
374.043	96
374.504	91
374.964	93
375.425	94
375.885	97
376.346	102
376.806	107
377.267	102
377.728	114
378.188	110
378.649	109
379.11	113
379.571	109
380.032	116
380.493	116
380.954	125
381.414	124
381.876	131
382.337	132
382.798	141
383.259	144
383.72	149
384.181	150
384.642	153
385.104	164
385.565	173
386.026	177
386.488	181
386.949	184
387.411	182
387.872	196
388.334	195
388.795	201
389.257	203
389.719	210
390.181	209
390.642	215
391.104	219
391.566	225
392.028	238
392.49	246
392.952	245
393.414	256
393.876	260
394.338	265
394.8	269
395.262	273
395.724	284
396.186	287
396.648	289
397.111	293
397.573	304
398.035	297
398.498	309
398.96	308
399.423	310
399.885	321
400.348	327
400.81	341
401.273	335
401.736	343
402.198	362
402.661	371
403.124	368
403.587	387
404.049	395
404.512	403
404.975	411
405.438	401
405.901	420
406.364	415
406.827	419
407.29	419
407.754	416
408.217	422
408.68	420
409.143	429
409.607	437
410.07	435
410.533	434
410.997	450
411.46	449
411.924	458
412.387	464
412.851	484
413.314	500
413.778	501
414.242	506
414.705	532
415.169	526
415.633	529
416.097	537
416.561	542
417.024	553
417.488	534
417.952	541
418.416	530
418.88	536
419.344	541
419.809	539
420.273	555
420.737	540
421.201	559
421.665	570
422.13	563
422.594	581
423.059	595
423.523	600
423.987	606
424.452	631
424.916	650
425.381	669
425.846	675
426.31	685
426.775	692
427.24	706
427.704	691
428.169	694
428.634	705
429.099	699
429.564	688
430.029	710
430.494	699
430.959	707
431.424	693
431.889	714
432.354	731
432.819	713
433.284	739
433.75	751
434.215	771
434.68	775
435.146	791
435.611	823
436.077	850
436.542	867
437.008	895
437.473	915
437.939	914
438.404	940
438.87	954
439.336	938
439.801	947
440.267	958
440.733	969
441.199	978
441.665	970
442.131	998
442.596	976
443.062	1005
443.529	1047
443.995	1052
444.461	1053
444.927	1099
445.393	1102
445.859	1153
446.325	1170
446.792	1239
447.258	1235
447.724	1284
448.191	1333
448.657	1345
449.124	1388
449.59	1370
450.057	1448
450.523	1472
450.99	1499
451.457	1497
451.923	1523
452.39	1496
452.857	1536
453.324	1519
453.791	1540
454.257	1560
454.724	1565
455.191	1562
455.658	1568
456.125	1615
456.592	1576
457.059	1623
457.527	1644
457.994	1694
458.461	1688
458.928	1720
459.396	1719
459.863	1784
460.33	1775
460.798	1791
461.265	1818
461.732	1806
462.2	1846
462.668	1841
463.135	1860
463.603	1807
464.07	1867
464.538	1784
465.006	1842
465.474	1814
465.941	1815
466.409	1818
466.877	1797
467.345	1834
467.813	1795
468.281	1836
468.749	1848
469.217	1832
469.685	1872
470.153	1893
470.621	1883
471.09	1901
471.558	1991
472.026	1955
472.494	2025
472.963	2041
473.431	2081
473.9	2126
474.368	2182
474.837	2196
475.305	2255
475.774	2298
476.242	2350
476.711	2388
477.18	2441
477.648	2415
478.117	2458
478.586	2438
479.055	2440
479.524	2452
479.993	2447
480.462	2427
480.93	2423
481.399	2439
481.869	2459
482.338	2417
482.807	2449
483.276	2451
483.745	2429
484.214	2497
484.684	2531
485.153	2512
485.622	2515
486.092	2596
486.561	2545
487.031	2607
487.5	2666
487.97	2670
488.439	2711
488.909	2781
489.378	2888
489.848	2884
490.318	2956
490.787	3113
491.257	3150
491.727	3163
492.197	3225
492.667	3236
493.137	3263
493.607	3289
494.077	3334
494.547	3298
495.017	3292
495.487	3371
495.957	3445
496.427	3354
496.897	3361
497.368	3407
497.838	3357
498.308	3375
498.779	3394
499.249	3418
499.719	3408
500.19	3447
500.66	3472
501.131	3483
501.602	3533
502.072	3536
502.543	3568
503.014	3665
503.484	3640
503.955	3748
504.426	3853
504.897	3859
505.368	3954
505.838	4015
506.309	4082
506.78	4227
507.251	4349
507.722	4406
508.194	4507
508.665	4583
509.136	4570
509.607	4682
510.078	4784
510.549	4844
511.021	4975
511.492	4926
511.964	5005
512.435	5089
512.906	5033
513.378	5078
513.849	5185
514.321	5186
514.793	5231
515.264	5291
515.736	5358
516.208	5422
516.679	5428
517.151	5521
517.623	5558
518.095	5598
518.567	5605
519.038	5766
519.51	5794
519.982	5853
520.454	5909
520.927	5975
521.399	6023
521.871	6033
522.343	6054
522.815	6182
523.287	6171
523.76	6174
524.232	6299
524.704	6379
525.177	6269
525.649	6318
526.122	6439
526.594	6320
527.067	6449
527.539	6469
528.012	6440
528.484	6437
528.957	6434
529.43	6397
529.903	6422
530.375	6621
530.848	6410
531.321	6489
531.794	6534
532.267	6656
532.74	6475
533.213	6471
533.686	6606
534.159	6566
534.632	6688
535.105	6671
535.578	6810
536.051	6810
536.525	6784
536.998	6781
537.471	6971
537.945	6865
538.418	6911
538.891	6958
539.365	7096
539.838	7122
540.312	7098
540.786	7138
541.259	7179
541.733	7300
542.206	7253
542.68	7136
543.154	7185
543.628	7180
544.101	7319
544.575	7275
545.049	7162
545.523	7334
545.997	7262
546.471	7318
546.945	7317
547.419	7440
547.893	7089
548.367	7176
548.842	7128
549.316	7152
549.79	7166
550.264	7095
550.739	7218
551.213	7253
551.687	7193
552.162	7210
552.636	7162
553.111	7133
553.585	7270
554.06	7087
554.534	7257
555.009	7239
555.484	7336
555.958	7315
556.433	7362
556.908	7515
557.383	7471
557.858	7616
558.333	7622
558.807	7545
559.282	7648
559.757	7823
560.232	7823
560.708	7702
561.183	7733
561.658	7789
562.133	7752
562.608	7707
563.083	7979
563.559	7803
564.034	7800
564.509	7810
564.985	7885
565.46	7858
565.936	7944
566.411	7880
566.887	7761
567.362	7872
567.838	7844
568.313	7891
568.789	7788
569.265	7814
569.74	7879
570.216	7762
570.692	7827
571.168	7808
571.644	7831
572.12	7790
572.596	7813
573.071	7743
573.547	7961
574.024	8090
574.5	8083
574.976	8083
575.452	8194
575.928	8289
576.404	8306
576.881	8524
577.357	8370
577.833	8484
578.31	8713
578.786	8804
579.262	8934
579.739	8852
580.215	9157
580.692	9182
581.169	9061
581.645	9074
582.122	9301
582.598	9260
583.075	9279
583.552	9329
584.029	9314
584.506	9326
584.982	9276
585.459	9479
585.936	9295
586.413	9404
586.89	9581
587.367	9477
587.844	9561
588.321	9470
588.799	9522
589.276	9494
589.753	9659
590.23	9631
590.707	9575
591.185	9582
591.662	9613
592.139	9747
592.617	9820
593.094	9774
593.572	9854
594.049	9963
594.527	9998
595.004	9933
595.482	10158
595.96	10152
596.437	10172
596.915	10367
597.393	10177
597.871	10401
598.349	10319
598.826	10551
599.304	10525
599.782	10645
600.26	10487
600.738	10720
601.216	10702
601.694	10745
602.173	10771
602.651	10910
603.129	10893
603.607	11044
604.085	11079
604.564	11026
605.042	11051
605.52	11059
605.999	11333
606.477	11083
606.956	11028
607.434	11113.5
607.913	11199
608.391	11220
608.87	11135
609.348	10939
609.827	10991
610.306	11116
610.785	11157
611.263	11161
611.742	11063
612.221	10893
612.7	11091
613.179	11156
613.658	10967
614.137	11074
614.616	11119
615.095	10919
615.574	11042
616.053	11061
616.532	10934
617.011	10983
617.491	11044
617.97	11051
618.449	11203
618.928	11274
619.408	11159
619.887	11257
620.367	11351
620.846	11492
621.326	11437
621.805	11570
622.285	11544
622.764	11672
623.244	11709
623.724	11708
624.203	11710
624.683	11489
625.163	11779
625.643	11797
626.123	11680
626.602	11863
627.082	11528
627.562	11554
628.042	11868
628.522	11785
629.002	11744
629.482	11787
629.963	11785
630.443	11737
630.923	11825
631.403	11885
631.883	11750
632.364	11741
632.844	11660
633.324	11740
633.805	11793
634.285	11651
634.766	11559
635.246	11588
635.727	11682
636.207	11727
636.688	11680
637.168	11618
637.649	11461
638.13	11396
638.611	11496
639.091	11526
639.572	11449
640.053	11313
640.534	11394
641.015	11413
641.496	11251
641.977	11403
642.458	11233
642.939	11198
643.42	11263
643.901	11380
644.382	11478
644.863	11439
645.345	11402
645.826	11386
646.307	11428
646.788	11639
647.27	11470
647.751	11505
648.233	11554
648.714	11298
649.196	11614
649.677	11567
650.159	11590
650.64	11433
651.122	11575
651.603	11411
652.085	11581
652.567	11617
653.049	11509
653.53	11449
654.012	11532
654.494	11327
654.976	11459
655.458	11487
655.94	11456
656.422	11603
656.904	11485
657.386	11404
657.868	11497
658.35	11471
658.833	11516
659.315	11490
659.797	11344
660.279	11360
660.762	11499
661.244	11388
661.726	11232
662.209	11170
662.691	11164
663.174	10981
663.656	11064
664.139	11091
664.621	10984
665.104	10819
665.587	10880
666.069	10915
666.552	10889
667.035	10761
667.517	10723
668	10730
668.483	10667
668.966	10640
669.449	10637
669.932	10714
670.415	10867
670.898	10767
671.381	10779
671.864	10832
672.347	10788
672.83	10841
673.313	10855
673.797	10735
674.28	10871
674.763	10869
675.247	10933
675.73	10949
676.213	11047
676.697	11119
677.18	11043
677.664	11019
678.147	11030
678.631	11084
679.114	11179
679.598	11120
680.082	11125
680.565	11097
681.049	11086
681.533	11122
682.017	11274
682.5	11240
682.984	11226
683.468	11157
683.952	10996
684.436	11263
684.92	11174
685.404	11243
685.888	11315
686.372	11217
686.856	11232
687.341	11398
687.825	11329
688.309	11410
688.793	11371
689.278	11163
689.762	11262
690.246	11217
690.731	11296
691.215	11331
691.7	11019
692.184	11113
692.669	11081
693.153	11139
693.638	11035
694.122	11107
694.607	11208
695.092	11040
695.577	11096
696.061	10900
696.546	10903
697.031	10867
697.516	10989
698.001	10956
698.486	10846
698.971	10902
699.456	10719
699.941	10750
700.426	10805
700.911	10905
701.396	10802
701.881	10827
702.366	10746
702.852	10725
703.337	10828
703.822	10838
704.308	10815
704.793	10804
705.278	10738
705.764	10741
706.249	10723
706.735	10809
707.22	10933
707.706	10759
708.191	10872
708.677	10826
709.163	10773
709.648	10905
710.134	11059
710.62	10961
711.106	10926
711.592	10989
712.077	10923
712.563	10677
713.049	10719
713.535	10955
714.021	10871
714.507	10796
714.993	10637
715.479	10743
715.966	10601
716.452	10673
716.938	10720
717.424	10440
717.91	10617
718.397	10452
718.883	10320
719.369	10337
719.856	10290
720.342	10467
720.829	10362
721.315	10399
721.802	10343
722.288	10402
722.775	10119
723.262	9891
723.748	10371
724.235	10302
724.722	10397
725.208	10141
725.695	10085
726.182	10041
726.669	9957
727.156	10063
727.643	9972
728.13	9989
728.617	9890
729.104	9850
729.591	9779
730.078	9857
730.565	9916
731.052	9759
731.539	9782
732.027	9653
732.514	9498
733.001	9582
733.488	9575
733.976	9606
734.463	9622
734.951	9574
735.438	9650
735.926	9489
736.413	9508
736.901	9465
737.388	9614
737.876	9626
738.364	9575
738.851	9597
739.339	9531
739.827	9620
740.314	9375
740.802	9501
741.29	9603
741.778	9502
742.266	9512
742.754	9473
743.242	9494
743.73	9298
744.218	9354
744.706	9334
745.194	9497
745.682	9450
746.17	9456
746.659	9372
747.147	9111
747.635	9219
748.123	9273
748.612	9291
749.1	9254
749.589	9298
750.077	9175
750.566	9090
751.054	9130
751.543	9212
752.031	9069
752.52	9115
753.008	8914
753.497	8866
753.986	8809
754.474	8700
754.963	8777
755.452	8684
755.941	8697
756.43	8729
756.919	8688
757.408	8622
757.896	8613
758.385	8595
758.875	8542
759.364	8529
759.853	8543
760.342	8432
760.831	8599
761.32	8498
761.809	8323
762.299	8391
762.788	8428
763.277	8460
763.767	8383
764.256	8435
764.745	8291
765.235	8373
765.724	8154
766.214	8246
766.703	8262
767.193	8197
767.683	8240
768.172	8109
768.662	8160
769.152	8100
769.641	8101
770.131	7909
770.621	8035
771.111	8023
771.601	8092
772.09	8053
772.58	7894
773.07	7856
773.56	7878
774.05	7728
774.54	7760
775.031	7800
775.521	7832
776.011	7837
776.501	7878
776.991	7686
777.482	7711
777.972	7517
778.462	7567
778.953	7690
779.443	7693
779.933	7671
780.424	7543
780.914	7548
781.405	7513
781.895	7441
782.386	7469
782.877	7509
783.367	7448
783.858	7418
784.349	7418
784.839	7330
785.33	7275
785.821	7186
786.312	7148
786.803	7200
787.293	7284
787.784	7227
788.275	7135
788.766	7027
789.257	7106
789.748	6910
790.24	6858
790.731	6957
791.222	6897
791.713	6927
792.204	6952
792.696	6741
793.187	6763
793.678	6696
794.169	6524
794.661	6690
795.152	6670
795.644	6667
796.135	6684
796.627	6712
797.118	6582
797.61	6500
798.101	6437
798.593	6565
799.085	6512
799.576	6599
800.068	6544
800.56	6555
801.052	6363
801.544	6314
802.035	6300
802.527	6230
803.019	6201
803.511	6222
804.003	6243
804.495	6294
804.987	6234
805.479	6075
805.971	6088
806.464	6088
806.956	5951
807.448	5986
807.94	6049
808.433	6045
808.925	6009
809.417	5922
809.91	5857
810.402	5709
810.894	5750
811.387	5797
811.879	5736
812.372	5789
812.865	5739
813.357	5719
813.85	5642
814.342	5574
814.835	5567
815.328	5590
815.821	5575
816.313	5642
816.806	5723
817.299	5724
817.792	5786
818.285	5701
818.778	5732
819.271	5704
819.764	5602
820.257	5615
820.75	5640
821.243	5688
821.736	5644
822.229	5697
822.722	5685
823.216	5761
