Data from lamp4bck_noballon_dubbel_Subt2__125__925.txt Node

Date: Wed Apr 09 12:19:50 CEST 2025
User: fys-lab-0081
Spectrometer: S04999
Trigger mode: 0
Resolution mode: 1024 pixels
Integration Time (sec): 1.000000E-1
Scans to average: 1
Nonlinearity correction enabled: false
Boxcar width: 0
Baseline correction enabled: true
XAxis mode: Wavelengths
Number of Pixels in Spectrum: 1024
>>>>>Begin Spectral Data<<<<<
336.42	8
336.877	11
337.334	13
337.792	16
338.249	15
338.706	14
339.164	12
339.621	13
340.079	15
340.536	19
340.994	17
341.452	19
341.909	20
342.367	17
342.825	16
343.283	19
343.741	16
344.198	17
344.656	16
345.114	21
345.572	23
346.03	19
346.488	22
346.947	18
347.405	22
347.863	18
348.321	21
348.779	26
349.238	25
349.696	26
350.154	21
350.613	27
351.071	24
351.53	30
351.988	31
352.447	31
352.905	27
353.364	25
353.823	32
354.282	33
354.74	26
355.199	38
355.658	36
356.117	38
356.576	38
357.035	37
357.494	37
357.953	36
358.412	40
358.871	41
359.33	41
359.789	39
360.249	43
360.708	46
361.167	46
361.626	47
362.086	47
362.545	50
363.005	57
363.464	55
363.924	56
364.383	55
364.843	62
365.303	66
365.762	69
366.222	63
366.682	66
367.142	70
367.601	69
368.061	68
368.521	69
368.981	66
369.441	78
369.901	73
370.361	76
370.821	76
371.282	74
371.742	77
372.202	80
372.662	84
373.123	81
373.583	83
374.043	95
374.504	92
374.964	95
375.425	96
375.885	97
376.346	102
376.806	109
377.267	103
377.728	110
378.188	110
378.649	111
379.11	114
379.571	113
380.032	119
380.493	119
380.954	123
381.414	131
381.876	130
382.337	130
382.798	136
383.259	144
383.72	147
384.181	149
384.642	155
385.104	168
385.565	171
386.026	176
386.488	184
386.949	184
387.411	190
387.872	193
388.334	198
388.795	203
389.257	206
389.719	206
390.181	216
390.642	219
391.104	221
391.566	230
392.028	244
392.49	249
392.952	249
393.414	257
393.876	262
394.338	268
394.8	271
395.262	268
395.724	283
396.186	291
396.648	291
397.111	295
397.573	301
398.035	303
398.498	305
398.96	313
399.423	315
399.885	319
400.348	328
400.81	340
401.273	341
401.736	340
402.198	362
402.661	376
403.124	367
403.587	387
404.049	398
404.512	409
404.975	415
405.438	407
405.901	419
406.364	422
406.827	424
407.29	415
407.754	418
408.217	422
408.68	421
409.143	436
409.607	432
410.07	438
410.533	436
410.997	453
411.46	452
411.924	465
412.387	471
412.851	486
413.314	498
413.778	498
414.242	510
414.705	537
415.169	528
415.633	535
416.097	532
416.561	544
417.024	552
417.488	529
417.952	544
418.416	538
418.88	538
419.344	537
419.809	538
420.273	557
420.737	546
421.201	557
421.665	570
422.13	564
422.594	589
423.059	594
423.523	605
423.987	605
424.452	633
424.916	649
425.381	674
425.846	676
426.31	687
426.775	697
427.24	701
427.704	697
428.169	701
428.634	709
429.099	694
429.564	691
430.029	705
430.494	704
430.959	709
431.424	700
431.889	721
432.354	734
432.819	716
433.284	747
433.75	750
434.215	775
434.68	779
435.146	793
435.611	825
436.077	854
436.542	866
437.008	901
437.473	912
437.939	920
438.404	937
438.87	954
439.336	936
439.801	948
440.267	965
440.733	979
441.199	979
441.665	975
442.131	999
442.596	974
443.062	1012
443.529	1043
443.995	1054
444.461	1061
444.927	1110
445.393	1106
445.859	1153
446.325	1171
446.792	1242
447.258	1231
447.724	1281
448.191	1336
448.657	1348
449.124	1387
449.59	1375
450.057	1450
450.523	1472
450.99	1495
451.457	1496
451.923	1513
452.39	1499
452.857	1541
453.324	1525
453.791	1535
454.257	1558
454.724	1566
455.191	1565
455.658	1564
456.125	1614
456.592	1576
457.059	1629
457.527	1637
457.994	1690
458.461	1697
458.928	1719
459.396	1721
459.863	1785
460.33	1780
460.798	1794
461.265	1823
461.732	1811
462.2	1844
462.668	1832
463.135	1858
463.603	1813
464.07	1877
464.538	1793
465.006	1850
465.474	1820
465.941	1811
466.409	1822
466.877	1796
467.345	1835
467.813	1804
468.281	1833
468.749	1845
469.217	1831
469.685	1865
470.153	1894
470.621	1881
471.09	1901
471.558	1991
472.026	1959
472.494	2026
472.963	2041
473.431	2080
473.9	2132
474.368	2184
474.837	2205
475.305	2256
475.774	2300
476.242	2360
476.711	2387
477.18	2451
477.648	2426
478.117	2457
478.586	2452
479.055	2439
479.524	2459
479.993	2446
480.462	2442
480.93	2426
481.399	2450
481.869	2468
482.338	2411
482.807	2453
483.276	2452
483.745	2441
484.214	2496
484.684	2535
485.153	2514
485.622	2520
486.092	2599
486.561	2555
487.031	2625
487.5	2673
487.97	2667
488.439	2715
488.909	2786
489.378	2895
489.848	2891
490.318	2962
490.787	3109
491.257	3143
491.727	3167
492.197	3242
492.667	3231
493.137	3261
493.607	3293
494.077	3347
494.547	3305
495.017	3291
495.487	3375
495.957	3442
496.427	3355
496.897	3368
497.368	3418
497.838	3363
498.308	3395
498.779	3410
499.249	3422
499.719	3413
500.19	3446
500.66	3480
501.131	3482
501.602	3537
502.072	3544
502.543	3583
503.014	3670
503.484	3647
503.955	3751
504.426	3856
504.897	3859
505.368	3965
505.838	4025
506.309	4077
506.78	4226
507.251	4353
507.722	4422
508.194	4526
508.665	4586
509.136	4567
509.607	4693
510.078	4781
510.549	4852
511.021	4977
511.492	4942
511.964	5028
512.435	5101
512.906	5041
513.378	5073
513.849	5189
514.321	5207
514.793	5241
515.264	5298
515.736	5366
516.208	5421
516.679	5446
517.151	5516
517.623	5573
518.095	5612
518.567	5626
519.038	5779
519.51	5797
519.982	5853
520.454	5921
520.927	5989
521.399	6028
521.871	6044
522.343	6064
522.815	6186
523.287	6160
523.76	6181
524.232	6305
524.704	6401
525.177	6283
525.649	6321
526.122	6451
526.594	6317
527.067	6454
527.539	6481
528.012	6445
528.484	6444
528.957	6443
529.43	6417
529.903	6425
530.375	6631
530.848	6422
531.321	6508
531.794	6542
532.267	6675
532.74	6484
533.213	6462
533.686	6612
534.159	6574
534.632	6683
535.105	6675
535.578	6819
536.051	6826
536.525	6791
536.998	6798
537.471	6976
537.945	6875
538.418	6923
538.891	6973
539.365	7104
539.838	7130
540.312	7105
540.786	7143
541.259	7202
541.733	7301
542.206	7259
542.68	7143
543.154	7185
543.628	7183
544.101	7319
544.575	7288
545.049	7158
545.523	7343
545.997	7264
546.471	7327
546.945	7320
547.419	7443
547.893	7095
548.367	7180
548.842	7140
549.316	7173
549.79	7172
550.264	7121
550.739	7208
551.213	7258
551.687	7207
552.162	7226
552.636	7154
553.111	7151
553.585	7286
554.06	7106
554.534	7263
555.009	7243
555.484	7332
555.958	7336
556.433	7363
556.908	7520
557.383	7494
557.858	7617
558.333	7620
558.807	7571
559.282	7662
559.757	7827
560.232	7838
560.708	7711
561.183	7736
561.658	7809
562.133	7771
562.608	7711
563.083	7991
563.559	7809
564.034	7820
564.509	7809
564.985	7894
565.46	7868
565.936	7963
566.411	7900
566.887	7762
567.362	7884
567.838	7856
568.313	7889
568.789	7802
569.265	7818
569.74	7886
570.216	7778
570.692	7831
571.168	7812
571.644	7838
572.12	7802
572.596	7833
573.071	7767
573.547	7970
574.024	8093
574.5	8089
574.976	8094
575.452	8203
575.928	8293
576.404	8319
576.881	8540
577.357	8380
577.833	8491
578.31	8732
578.786	8811
579.262	8950
579.739	8863
580.215	9172
580.692	9190
581.169	9082
581.645	9072
582.122	9320
582.598	9288
583.075	9294
583.552	9340
584.029	9336
584.506	9340
584.982	9290
585.459	9475
585.936	9315
586.413	9417
586.89	9604
587.367	9480
587.844	9575
588.321	9486
588.799	9550
589.276	9511
589.753	9666
590.23	9648
590.707	9579
591.185	9604
591.662	9638
592.139	9770
592.617	9832
593.094	9769
593.572	9864
594.049	9983
594.527	9998
595.004	9937
595.482	10175
595.96	10168
596.437	10194
596.915	10383
597.393	10199
597.871	10404
598.349	10319
598.826	10568
599.304	10543
599.782	10661
600.26	10499
600.738	10737
601.216	10715
601.694	10754
602.173	10780
602.651	10916
603.129	10909
603.607	11050
604.085	11093
604.564	11033
605.042	11059
605.52	11079
605.999	11357
606.477	11095
606.956	11040
607.434	11119
607.913	11198
608.391	11217
608.87	11154
609.348	10963
609.827	11007
610.306	11130
610.785	11190
611.263	11185
611.742	11086
612.221	10923
612.7	11091
613.179	11166
613.658	11002
614.137	11091
614.616	11127
615.095	10929
615.574	11057
616.053	11069
616.532	10945
617.011	10994
617.491	11073
617.97	11082
618.449	11221
618.928	11304
619.408	11176
619.887	11277
620.367	11356
620.846	11509
621.326	11459
621.805	11584
622.285	11544
622.764	11686
623.244	11724
623.724	11727
624.203	11742
624.683	11505
625.163	11794
625.643	11811
626.123	11710
626.602	11866
627.082	11555
627.562	11558
628.042	11888
628.522	11806
629.002	11760
629.482	11800
629.963	11789
630.443	11755
630.923	11845
631.403	11899
631.883	11765
632.364	11762
632.844	11676
633.324	11755
633.805	11806
634.285	11667
634.766	11565
635.246	11599
635.727	11695
636.207	11739
636.688	11705
637.168	11631
637.649	11478
638.13	11419
638.611	11517
639.091	11539
639.572	11462
640.053	11324
640.534	11408
641.015	11431
641.496	11265
641.977	11417
642.458	11264
642.939	11209
643.42	11287
643.901	11394
644.382	11502
644.863	11452
645.345	11415
645.826	11399
646.307	11425
646.788	11662
647.27	11493
647.751	11522
648.233	11573
648.714	11313
649.196	11621
649.677	11588
650.159	11597
650.64	11444
651.122	11596
651.603	11422
652.085	11588
652.567	11628
653.049	11534
653.53	11453
654.012	11550
654.494	11352
654.976	11487
655.458	11488
655.94	11474
656.422	11615
656.904	11519
657.386	11431
657.868	11510
658.35	11473
658.833	11546
659.315	11510
659.797	11362
660.279	11369
660.762	11510
661.244	11392
661.726	11257
662.209	11208
662.691	11193
663.174	10991
663.656	11095
664.139	11106
664.621	10981
665.104	10840
665.587	10894
666.069	10933
666.552	10903
667.035	10787
667.517	10740
668	10745
668.483	10684
668.966	10645
669.449	10646
669.932	10722
670.415	10884
670.898	10800
671.381	10795
671.864	10853
672.347	10784
672.83	10845
673.313	10870
673.797	10757
674.28	10883
674.763	10889
675.247	10948
675.73	10968
676.213	11076
676.697	11134
677.18	11060
677.664	11039
678.147	11034
678.631	11100
679.114	11195
679.598	11134
680.082	11147
680.565	11104
681.049	11090
681.533	11140
682.017	11291
682.5	11235
682.984	11239
683.468	11159
683.952	11012
684.436	11268
684.92	11197
685.404	11257
685.888	11330
686.372	11221
686.856	11242
687.341	11414
687.825	11363
688.309	11425
688.793	11389
689.278	11180
689.762	11269
690.246	11233
690.731	11319
691.215	11365
691.7	11039
692.184	11123
692.669	11101
693.153	11156
693.638	11062
694.122	11110
694.607	11217
695.092	11046
695.577	11112
696.061	10921
696.546	10929
697.031	10879
697.516	10997
698.001	10982
698.486	10848
698.971	10925
699.456	10719
699.941	10775
700.426	10826
700.911	10927
701.396	10801
701.881	10838
702.366	10755
702.852	10725
703.337	10828
703.822	10839
704.308	10835
704.793	10817
705.278	10756
705.764	10756
706.249	10734
706.735	10814
707.22	10938
707.706	10764
708.191	10886
708.677	10846
709.163	10785
709.648	10917
710.134	11080
710.62	10985
711.106	10933
711.592	11034
712.077	10942
712.563	10695
713.049	10725
713.535	10955
714.021	10886
714.507	10819
714.993	10653
715.479	10738
715.966	10614
716.452	10690
716.938	10749
717.424	10454
717.91	10643
718.397	10459
718.883	10342
719.369	10344
719.856	10304
720.342	10489
720.829	10390
721.315	10424
721.802	10360
722.288	10443
722.775	10126
723.262	9908
723.748	10382
724.235	10311
724.722	10421
725.208	10141
725.695	10094
726.182	10070
726.669	9970
727.156	10082
727.643	9991
728.13	10015
728.617	9912
729.104	9884
729.591	9789
730.078	9885
730.565	9936
731.052	9779
731.539	9793
732.027	9672
732.514	9505
733.001	9593
733.488	9594
733.976	9625
734.463	9633
734.951	9594
735.438	9664
735.926	9501
736.413	9523
736.901	9464
737.388	9627
737.876	9647
738.364	9589
738.851	9610
739.339	9537
739.827	9621
740.314	9387
740.802	9523
741.29	9625
741.778	9530
742.266	9543
742.754	9487
743.242	9509
743.73	9327
744.218	9379
744.706	9343
745.194	9521
745.682	9461
746.17	9478
746.659	9383
747.147	9137
747.635	9226
748.123	9281
748.612	9289
749.1	9268
749.589	9311
750.077	9193
750.566	9098
751.054	9142
751.543	9212
752.031	9084
752.52	9130
753.008	8919
753.497	8882
753.986	8825
754.474	8717
754.963	8784
755.452	8700
755.941	8720
756.43	8739
756.919	8701
757.408	8628
757.896	8621
758.385	8615
758.875	8552
759.364	8535
759.853	8566
760.342	8435
760.831	8603
761.32	8505
761.809	8340
762.299	8404
762.788	8438
763.277	8476
763.767	8397
764.256	8453
764.745	8297
765.235	8380
765.724	8160
766.214	8259
766.703	8278
767.193	8220
767.683	8264
768.172	8119
768.662	8182
769.152	8117
769.641	8118
770.131	7928
770.621	8055
771.111	8038
771.601	8118
772.09	8066
772.58	7918
773.07	7875
773.56	7882
774.05	7740
774.54	7766
775.031	7819
775.521	7833
776.011	7854
776.501	7892
776.991	7699
777.482	7722
777.972	7545
778.462	7585
778.953	7706
779.443	7695
779.933	7687
780.424	7566
780.914	7559
781.405	7527
781.895	7455
782.386	7489
782.877	7527
783.367	7463
783.858	7430
784.349	7449
784.839	7336
785.33	7291
785.821	7193
786.312	7141
786.803	7214
787.293	7292
787.784	7247
788.275	7152
788.766	7045
789.257	7111
789.748	6929
790.24	6862
790.731	6960
791.222	6912
791.713	6931
792.204	6972
792.696	6750
793.187	6783
793.678	6703
794.169	6531
794.661	6702
795.152	6678
795.644	6680
796.135	6696
796.627	6730
797.118	6586
797.61	6517
798.101	6454
798.593	6585
799.085	6526
799.576	6609
800.068	6572
800.56	6577
801.052	6377
801.544	6311
802.035	6315
802.527	6235
803.019	6229
803.511	6235
804.003	6247
804.495	6314
804.987	6263
805.479	6094
805.971	6103
806.464	6098
806.956	5962
807.448	6016
807.94	6060
808.433	6059
808.925	6018
809.417	5946
809.91	5887
810.402	5719
810.894	5755
811.387	5812
811.879	5747
812.372	5802
812.865	5744
813.357	5741
813.85	5655
814.342	5581
814.835	5578
815.328	5601
815.821	5583
816.313	5655
816.806	5738
817.299	5728
817.792	5791
818.285	5709
818.778	5752
819.271	5721
819.764	5610
820.257	5622
820.75	5651
821.243	5700
821.736	5652
822.229	5700
822.722	5693
823.216	5769
