Data from lamp4bck_noballon_dubbel_Subt2__181__981.txt Node

Date: Wed Apr 09 12:19:57 CEST 2025
User: fys-lab-0081
Spectrometer: S04999
Trigger mode: 0
Resolution mode: 1024 pixels
Integration Time (sec): 1.000000E-1
Scans to average: 1
Nonlinearity correction enabled: false
Boxcar width: 0
Baseline correction enabled: true
XAxis mode: Wavelengths
Number of Pixels in Spectrum: 1024
>>>>>Begin Spectral Data<<<<<
336.42	7
336.877	10
337.334	11
337.792	16
338.249	11
338.706	16
339.164	17
339.621	15
340.079	13
340.536	17
340.994	19
341.452	15
341.909	17
342.367	15
342.825	16
343.283	19
343.741	14
344.198	21
344.656	15
345.114	17
345.572	19
346.03	18
346.488	19
346.947	21
347.405	20
347.863	19
348.321	18
348.779	25
349.238	23
349.696	24
350.154	21
350.613	27
351.071	29
351.53	30
351.988	30
352.447	28
352.905	24
353.364	27
353.823	35
354.282	31
354.74	24
355.199	37
355.658	35
356.117	37
356.576	32
357.035	30
357.494	42
357.953	39
358.412	38
358.871	39
359.33	39
359.789	38
360.249	47
360.708	43
361.167	43
361.626	48
362.086	48
362.545	49
363.005	50
363.464	55
363.924	54
364.383	58
364.843	61
365.303	63
365.762	70
366.222	64
366.682	66
367.142	70
367.601	69
368.061	67
368.521	74
368.981	67
369.441	76
369.901	71
370.361	72
370.821	75
371.282	75
371.742	79
372.202	77
372.662	82
373.123	81
373.583	83
374.043	87
374.504	87
374.964	91
375.425	94
375.885	96
376.346	105
376.806	105
377.267	103
377.728	114
378.188	111
378.649	113
379.11	117
379.571	111
380.032	118
380.493	120
380.954	122
381.414	127
381.876	131
382.337	131
382.798	138
383.259	145
383.72	152
384.181	146
384.642	156
385.104	165
385.565	173
386.026	179
386.488	181
386.949	184
387.411	188
387.872	193
388.334	200
388.795	200
389.257	204
389.719	209
390.181	215
390.642	217
391.104	221
391.566	232
392.028	241
392.49	247
392.952	247
393.414	258
393.876	268
394.338	270
394.8	266
395.262	270
395.724	279
396.186	291
396.648	292
397.111	291
397.573	303
398.035	300
398.498	310
398.96	312
399.423	317
399.885	323
400.348	327
400.81	339
401.273	340
401.736	338
402.198	369
402.661	373
403.124	368
403.587	387
404.049	396
404.512	405
404.975	414
405.438	407
405.901	418
406.364	424
406.827	424
407.29	419
407.754	420
408.217	428
408.68	424
409.143	431
409.607	439
410.07	437
410.533	441
410.997	452
411.46	458
411.924	464
412.387	471
412.851	484
413.314	494
413.778	505
414.242	513
414.705	539
415.169	532
415.633	535
416.097	536
416.561	540
417.024	557
417.488	535
417.952	544
418.416	539
418.88	543
419.344	542
419.809	541
420.273	557
420.737	545
421.201	556
421.665	570
422.13	567
422.594	584
423.059	597
423.523	607
423.987	608
424.452	637
424.916	651
425.381	678
425.846	678
426.31	690
426.775	698
427.24	704
427.704	700
428.169	698
428.634	706
429.099	703
429.564	691
430.029	706
430.494	704
430.959	706
431.424	698
431.889	726
432.354	736
432.819	717
433.284	753
433.75	755
434.215	782
434.68	783
435.146	795
435.611	828
436.077	859
436.542	868
437.008	902
437.473	920
437.939	920
438.404	940
438.87	959
439.336	940
439.801	951
440.267	968
440.733	974
441.199	975
441.665	972
442.131	1005
442.596	977
443.062	1014
443.529	1050
443.995	1052
444.461	1065
444.927	1109
445.393	1109
445.859	1154
446.325	1177
446.792	1238
447.258	1238
447.724	1289
448.191	1339
448.657	1352
449.124	1395
449.59	1381
450.057	1455
450.523	1482
450.99	1511
451.457	1506
451.923	1530
452.39	1504
452.857	1543
453.324	1527
453.791	1548
454.257	1566
454.724	1582
455.191	1568
455.658	1568
456.125	1626
456.592	1583
457.059	1632
457.527	1643
457.994	1700
458.461	1711
458.928	1727
459.396	1722
459.863	1791
460.33	1789
460.798	1800
461.265	1822
461.732	1812
462.2	1848
462.668	1851
463.135	1867
463.603	1816
464.07	1884
464.538	1803
465.006	1853
465.474	1820
465.941	1822
466.409	1826
466.877	1799
467.345	1838
467.813	1803
468.281	1842
468.749	1855
469.217	1841
469.685	1876
470.153	1905
470.621	1888
471.09	1901
471.558	1997
472.026	1970
472.494	2039
472.963	2048
473.431	2093
473.9	2133
474.368	2193
474.837	2215
475.305	2263
475.774	2308
476.242	2362
476.711	2389
477.18	2456
477.648	2425
478.117	2472
478.586	2456
479.055	2450
479.524	2461
479.993	2459
480.462	2440
480.93	2435
481.399	2464
481.869	2469
482.338	2421
482.807	2471
483.276	2462
483.745	2441
484.214	2510
484.684	2547
485.153	2520
485.622	2536
486.092	2603
486.561	2562
487.031	2625
487.5	2685
487.97	2685
488.439	2721
488.909	2791
489.378	2908
489.848	2895
490.318	2975
490.787	3120
491.257	3166
491.727	3181
492.197	3244
492.667	3239
493.137	3278
493.607	3314
494.077	3356
494.547	3319
495.017	3303
495.487	3384
495.957	3459
496.427	3375
496.897	3376
497.368	3423
497.838	3367
498.308	3402
498.779	3417
499.249	3430
499.719	3424
500.19	3453
500.66	3487
501.131	3500
501.602	3552
502.072	3558
502.543	3592
503.014	3692
503.484	3649
503.955	3757
504.426	3871
504.897	3872
505.368	3969
505.838	4038
506.309	4099
506.78	4243
507.251	4369
507.722	4430
508.194	4534
508.665	4593
509.136	4586
509.607	4710
510.078	4815
510.549	4862
511.021	5004
511.492	4955
511.964	5036
512.435	5106
512.906	5056
513.378	5094
513.849	5210
514.321	5218
514.793	5267
515.264	5321
515.736	5385
516.208	5437
516.679	5465
517.151	5534
517.623	5589
518.095	5611
518.567	5642
519.038	5798
519.51	5812
519.982	5871
520.454	5941
520.927	6011
521.399	6052
521.871	6070
522.343	6084
522.815	6206
523.287	6190
523.76	6195
524.232	6319
524.704	6420
525.177	6294
525.649	6350
526.122	6462
526.594	6341
527.067	6468
527.539	6502
528.012	6470
528.484	6470
528.957	6466
529.43	6429
529.903	6445
530.375	6645
530.848	6436
531.321	6529
531.794	6561
532.267	6688
532.74	6510
533.213	6499
533.686	6623
534.159	6610
534.632	6716
535.105	6700
535.578	6845
536.051	6853
536.525	6818
536.998	6811
537.471	7002
537.945	6894
538.418	6943
538.891	6981
539.365	7143
539.838	7147
540.312	7129
540.786	7178
541.259	7220
541.733	7325
542.206	7274
542.68	7167
543.154	7209
543.628	7222
544.101	7344
544.575	7314
545.049	7186
545.523	7370
545.997	7300
546.471	7341
546.945	7350
547.419	7467
547.893	7117
548.367	7204
548.842	7161
549.316	7187
549.79	7208
550.264	7124
550.739	7231
551.213	7284
551.687	7230
552.162	7250
552.636	7182
553.111	7164
553.585	7308
554.06	7123
554.534	7303
555.009	7267
555.484	7362
555.958	7344
556.433	7394
556.908	7550
557.383	7512
557.858	7649
558.333	7654
558.807	7577
559.282	7690
559.757	7864
560.232	7867
560.708	7724
561.183	7752
561.658	7820
562.133	7802
562.608	7722
563.083	8000
563.559	7817
564.034	7830
564.509	7841
564.985	7932
565.46	7895
565.936	7977
566.411	7923
566.887	7789
567.362	7909
567.838	7877
568.313	7919
568.789	7820
569.265	7849
569.74	7901
570.216	7791
570.692	7858
571.168	7840
571.644	7871
572.12	7829
572.596	7852
573.071	7778
573.547	7995
574.024	8120
574.5	8112
574.976	8104
575.452	8230
575.928	8314
576.404	8341
576.881	8559
577.357	8417
577.833	8518
578.31	8750
578.786	8851
579.262	8963
579.739	8889
580.215	9183
580.692	9212
581.169	9104
581.645	9104
582.122	9345
582.598	9302
583.075	9314
583.552	9378
584.029	9362
584.506	9369
584.982	9330
585.459	9514
585.936	9351
586.413	9445
586.89	9623
587.367	9523
587.844	9582
588.321	9504
588.799	9561
589.276	9541
589.753	9689
590.23	9687
590.707	9602
591.185	9625
591.662	9660
592.139	9776
592.617	9866
593.094	9812
593.572	9893
594.049	10017
594.527	10035
595.004	9964
595.482	10197
595.96	10189
596.437	10224
596.915	10400
597.393	10218
597.871	10443
598.349	10356
598.826	10592
599.304	10560
599.782	10689
600.26	10514
600.738	10766
601.216	10746
601.694	10788
602.173	10819
602.651	10942
603.129	10950
603.607	11094
604.085	11125
604.564	11064
605.042	11083
605.52	11094
605.999	11394
606.477	11129
606.956	11076
607.434	11159
607.913	11242
608.391	11259
608.87	11188
609.348	10990
609.827	11036
610.306	11164
610.785	11207
611.263	11216
611.742	11113
612.221	10940
612.7	11113
613.179	11201
613.658	11033
614.137	11124
614.616	11161
615.095	10954
615.574	11076
616.053	11095
616.532	10961
617.011	11042
617.491	11097
617.97	11103
618.449	11242
618.928	11325
619.408	11204
619.887	11294
620.367	11390
620.846	11526
621.326	11486
621.805	11605
622.285	11567
622.764	11701
623.244	11757
623.724	11750
624.203	11748
624.683	11529
625.163	11818
625.643	11844
626.123	11739
626.602	11899
627.082	11577
627.562	11585
628.042	11915
628.522	11837
629.002	11796
629.482	11818
629.963	11834
630.443	11783
630.923	11868
631.403	11934
631.883	11789
632.364	11785
632.844	11700
633.324	11781
633.805	11837
634.285	11692
634.766	11600
635.246	11629
635.727	11722
636.207	11772
636.688	11725
637.168	11659
637.649	11502
638.13	11437
638.611	11554
639.091	11576
639.572	11499
640.053	11342
640.534	11435
641.015	11465
641.496	11303
641.977	11457
642.458	11281
642.939	11239
643.42	11322
643.901	11418
644.382	11525
644.863	11488
645.345	11458
645.826	11436
646.307	11446
646.788	11690
647.27	11522
647.751	11553
648.233	11604
648.714	11324
649.196	11654
649.677	11610
650.159	11635
650.64	11473
651.122	11609
651.603	11446
652.085	11605
652.567	11654
653.049	11563
653.53	11490
654.012	11573
654.494	11381
654.976	11509
655.458	11524
655.94	11489
656.422	11635
656.904	11534
657.386	11452
657.868	11540
658.35	11511
658.833	11571
659.315	11529
659.797	11394
660.279	11409
660.762	11531
661.244	11431
661.726	11279
662.209	11228
662.691	11212
663.174	10991
663.656	11100
664.139	11133
664.621	11015
665.104	10864
665.587	10934
666.069	10948
666.552	10927
667.035	10808
667.517	10764
668	10760
668.483	10705
668.966	10667
669.449	10672
669.932	10754
670.415	10915
670.898	10822
671.381	10836
671.864	10864
672.347	10821
672.83	10880
673.313	10890
673.797	10784
674.28	10908
674.763	10911
675.247	10961
675.73	10995
676.213	11103
676.697	11151
677.18	11086
677.664	11060
678.147	11071
678.631	11130
679.114	11240
679.598	11155
680.082	11188
680.565	11126
681.049	11124
681.533	11171
682.017	11317
682.5	11273
682.984	11275
683.468	11193
683.952	11048
684.436	11296
684.92	11205
685.404	11276
685.888	11366
686.372	11257
686.856	11278
687.341	11445
687.825	11370
688.309	11451
688.793	11410
689.278	11215
689.762	11305
690.246	11252
690.731	11335
691.215	11376
691.7	11068
692.184	11150
692.669	11130
693.153	11174
693.638	11098
694.122	11134
694.607	11237
695.092	11077
695.577	11145
696.061	10945
696.546	10950
697.031	10912
697.516	11023
698.001	11000
698.486	10890
698.971	10957
699.456	10752
699.941	10806
700.426	10848
700.911	10961
701.396	10837
701.881	10864
702.366	10783
702.852	10743
703.337	10860
703.822	10868
704.308	10856
704.793	10840
705.278	10785
705.764	10786
706.249	10771
706.735	10833
707.22	10966
707.706	10787
708.191	10922
708.677	10870
709.163	10814
709.648	10942
710.134	11106
710.62	11007
711.106	10973
711.592	11052
712.077	10956
712.563	10722
713.049	10753
713.535	10982
714.021	10925
714.507	10841
714.993	10676
715.479	10779
715.966	10640
716.452	10709
716.938	10776
717.424	10484
717.91	10668
718.397	10493
718.883	10373
719.369	10377
719.856	10329
720.342	10502
720.829	10412
721.315	10446
721.802	10374
722.288	10453
722.775	10162
723.262	9939
723.748	10395
724.235	10334
724.722	10446
725.208	10161
725.695	10109
726.182	10084
726.669	9982
727.156	10109
727.643	10013
728.13	10041
728.617	9927
729.104	9891
729.591	9808
730.078	9912
730.565	9953
731.052	9804
731.539	9820
732.027	9698
732.514	9533
733.001	9628
733.488	9620
733.976	9646
734.463	9667
734.951	9611
735.438	9680
735.926	9528
736.413	9559
736.901	9489
737.388	9640
737.876	9675
738.364	9614
738.851	9642
739.339	9560
739.827	9632
740.314	9418
740.802	9541
741.29	9645
741.778	9551
742.266	9545
742.754	9522
743.242	9528
743.73	9338
744.218	9388
744.706	9360
745.194	9542
745.682	9498
746.17	9476
746.659	9399
747.147	9142
747.635	9244
748.123	9312
748.612	9326
749.1	9294
749.589	9321
750.077	9228
750.566	9127
751.054	9155
751.543	9254
752.031	9103
752.52	9171
753.008	8946
753.497	8894
753.986	8833
754.474	8733
754.963	8798
755.452	8717
755.941	8729
756.43	8755
756.919	8717
757.408	8647
757.896	8642
758.385	8634
758.875	8558
759.364	8547
759.853	8569
760.342	8463
760.831	8626
761.32	8523
761.809	8370
762.299	8413
762.788	8457
763.277	8499
763.767	8412
764.256	8455
764.745	8320
765.235	8404
765.724	8169
766.214	8282
766.703	8306
767.193	8230
767.683	8278
768.172	8143
768.662	8204
769.152	8137
769.641	8135
770.131	7944
770.621	8073
771.111	8046
771.601	8134
772.09	8088
772.58	7939
773.07	7881
773.56	7904
774.05	7754
774.54	7789
775.031	7834
775.521	7856
776.011	7870
776.501	7907
776.991	7718
777.482	7737
777.972	7565
778.462	7603
778.953	7734
779.443	7719
779.933	7704
780.424	7573
780.914	7583
781.405	7548
781.895	7471
782.386	7499
782.877	7543
783.367	7478
783.858	7460
784.349	7444
784.839	7355
785.33	7304
785.821	7209
786.312	7159
786.803	7222
787.293	7310
787.784	7264
788.275	7157
788.766	7057
789.257	7120
789.748	6938
790.24	6878
790.731	6975
791.222	6922
791.713	6960
792.204	6973
792.696	6756
793.187	6797
793.678	6722
794.169	6560
794.661	6723
795.152	6689
795.644	6701
796.135	6714
796.627	6750
797.118	6604
797.61	6538
798.101	6463
798.593	6595
799.085	6536
799.576	6622
800.068	6573
800.56	6598
801.052	6388
801.544	6332
802.035	6323
802.527	6249
803.019	6241
803.511	6251
804.003	6275
804.495	6325
804.987	6273
805.479	6104
805.971	6102
806.464	6113
806.956	5978
807.448	6019
807.94	6077
808.433	6069
808.925	6030
809.417	5950
809.91	5895
810.402	5730
810.894	5767
811.387	5821
811.879	5751
812.372	5802
812.865	5758
813.357	5742
813.85	5658
814.342	5593
814.835	5584
815.328	5617
815.821	5584
816.313	5674
816.806	5743
817.299	5737
817.792	5807
818.285	5735
818.778	5766
819.271	5736
819.764	5628
820.257	5633
820.75	5667
821.243	5711
821.736	5671
822.229	5721
822.722	5705
823.216	5793
