Data from lamp4bck_noballon_dubbel_Subt2__126__926.txt Node

Date: Wed Apr 09 12:19:51 CEST 2025
User: fys-lab-0081
Spectrometer: S04999
Trigger mode: 0
Resolution mode: 1024 pixels
Integration Time (sec): 1.000000E-1
Scans to average: 1
Nonlinearity correction enabled: false
Boxcar width: 0
Baseline correction enabled: true
XAxis mode: Wavelengths
Number of Pixels in Spectrum: 1024
>>>>>Begin Spectral Data<<<<<
336.42	15
336.877	13
337.334	12
337.792	12
338.249	12
338.706	12
339.164	15
339.621	16
340.079	15
340.536	17
340.994	15
341.452	18
341.909	20
342.367	14
342.825	12
343.283	18
343.741	18
344.198	15
344.656	16
345.114	19
345.572	18
346.03	18
346.488	19
346.947	18
347.405	25
347.863	19
348.321	18
348.779	26
349.238	21
349.696	29
350.154	24
350.613	25
351.071	28
351.53	29
351.988	31
352.447	29
352.905	26
353.364	35
353.823	36
354.282	30
354.74	29
355.199	38
355.658	43
356.117	36
356.576	36
357.035	31
357.494	38
357.953	39
358.412	41
358.871	39
359.33	42
359.789	43
360.249	48
360.708	47
361.167	49
361.626	49
362.086	49
362.545	52
363.005	53
363.464	55
363.924	57
364.383	58
364.843	63
365.303	64
365.762	65
366.222	65
366.682	64
367.142	69
367.601	69
368.061	65
368.521	69
368.981	69
369.441	74
369.901	75
370.361	72
370.821	72
371.282	73
371.742	78
372.202	81
372.662	84
373.123	83
373.583	89
374.043	88
374.504	91
374.964	94
375.425	96
375.885	102
376.346	103
376.806	108
377.267	106
377.728	107
378.188	110
378.649	108
379.11	113
379.571	112
380.032	120
380.493	118
380.954	130
381.414	126
381.876	131
382.337	133
382.798	139
383.259	150
383.72	148
384.181	150
384.642	158
385.104	169
385.565	169
386.026	182
386.488	181
386.949	184
387.411	188
387.872	191
388.334	197
388.795	202
389.257	205
389.719	205
390.181	216
390.642	216
391.104	223
391.566	227
392.028	239
392.49	246
392.952	250
393.414	261
393.876	262
394.338	267
394.8	267
395.262	271
395.724	284
396.186	288
396.648	295
397.111	292
397.573	303
398.035	300
398.498	307
398.96	309
399.423	316
399.885	323
400.348	328
400.81	338
401.273	339
401.736	339
402.198	364
402.661	373
403.124	368
403.587	389
404.049	396.5
404.512	404
404.975	415
405.438	407
405.901	425
406.364	417
406.827	426
407.29	417
407.754	415
408.217	423
408.68	424
409.143	433
409.607	436
410.07	435
410.533	439
410.997	451
411.46	451
411.924	469
412.387	471
412.851	484
413.314	499
413.778	500
414.242	508
414.705	539
415.169	526
415.633	538
416.097	533
416.561	539
417.024	555
417.488	533
417.952	544
418.416	533
418.88	538
419.344	540
419.809	540
420.273	553
420.737	541
421.201	559
421.665	569
422.13	571
422.594	582
423.059	604
423.523	605
423.987	609
424.452	632
424.916	654
425.381	669
425.846	674
426.31	686
426.775	701
427.24	703
427.704	695
428.169	699
428.634	704
429.099	696
429.564	692
430.029	706
430.494	697
430.959	708
431.424	702
431.889	720
432.354	733
432.819	713
433.284	746
433.75	752
434.215	779
434.68	777
435.146	793
435.611	820
436.077	854
436.542	868
437.008	903
437.473	916
437.939	912
438.404	941
438.87	959
439.336	936
439.801	944
440.267	963
440.733	971
441.199	976
441.665	976
442.131	1000
442.596	975
443.062	1006
443.529	1046
443.995	1054
444.461	1061
444.927	1104
445.393	1105
445.859	1150
446.325	1172
446.792	1236
447.258	1233
447.724	1284
448.191	1339
448.657	1341
449.124	1384
449.59	1375
450.057	1451
450.523	1480
450.99	1501
451.457	1502
451.923	1523
452.39	1501
452.857	1539
453.324	1520
453.791	1549
454.257	1555
454.724	1576
455.191	1564
455.658	1568
456.125	1624
456.592	1574
457.059	1632
457.527	1637
457.994	1697
458.461	1694
458.928	1718
459.396	1718
459.863	1782
460.33	1776
460.798	1790
461.265	1820
461.732	1809
462.2	1847
462.668	1838
463.135	1858
463.603	1812
464.07	1879
464.538	1796
465.006	1848
465.474	1819
465.941	1812
466.409	1822
466.877	1797
467.345	1832
467.813	1804
468.281	1836
468.749	1839
469.217	1830
469.685	1868
470.153	1901
470.621	1877
471.09	1899
471.558	1991
472.026	1953
472.494	2018
472.963	2039
473.431	2083
473.9	2128
474.368	2186
474.837	2203
475.305	2246
475.774	2299
476.242	2358
476.711	2389
477.18	2448
477.648	2424
478.117	2453
478.586	2449
479.055	2446
479.524	2458
479.993	2449
480.462	2428
480.93	2424
481.399	2447
481.869	2464
482.338	2411
482.807	2452
483.276	2451
483.745	2438
484.214	2497
484.684	2534
485.153	2513
485.622	2530
486.092	2597
486.561	2545
487.031	2611
487.5	2670
487.97	2664
488.439	2716
488.909	2785
489.378	2890
489.848	2892
490.318	2956
490.787	3104
491.257	3142
491.727	3172
492.197	3232
492.667	3237
493.137	3261
493.607	3303
494.077	3341
494.547	3300
495.017	3297
495.487	3375
495.957	3449
496.427	3355
496.897	3366
497.368	3409
497.838	3361
498.308	3379
498.779	3399
499.249	3421
499.719	3421
500.19	3452
500.66	3480
501.131	3479
501.602	3542
502.072	3547
502.543	3586
503.014	3683
503.484	3648
503.955	3752
504.426	3859
504.897	3871
505.368	3961
505.838	4022
506.309	4077
506.78	4233
507.251	4350
507.722	4420
508.194	4515
508.665	4591
509.136	4566
509.607	4702
510.078	4781
510.549	4850
511.021	4981
511.492	4942
511.964	5025
512.435	5102
512.906	5039
513.378	5074
513.849	5193
514.321	5204
514.793	5243
515.264	5294
515.736	5377
516.208	5425
516.679	5438
517.151	5519
517.623	5564
518.095	5592
518.567	5624
519.038	5776
519.51	5807
519.982	5856
520.454	5927
520.927	5978
521.399	6029
521.871	6035
522.343	6073
522.815	6191
523.287	6173
523.76	6179
524.232	6305
524.704	6396
525.177	6280
525.649	6325
526.122	6442
526.594	6328
527.067	6465
527.539	6480
528.012	6442
528.484	6448
528.957	6445
529.43	6414
529.903	6420
530.375	6626
530.848	6422
531.321	6501
531.794	6545
532.267	6672
532.74	6488
533.213	6475
533.686	6616
534.159	6566
534.632	6686
535.105	6681
535.578	6832
536.051	6821
536.525	6798
536.998	6784
537.471	6970
537.945	6884
538.418	6924
538.891	6970
539.365	7104
539.838	7129
540.312	7111
540.786	7141
541.259	7196
541.733	7309
542.206	7260
542.68	7139
543.154	7195
543.628	7176
544.101	7320
544.575	7284
545.049	7166
545.523	7345
545.997	7261
546.471	7320
546.945	7318
547.419	7447
547.893	7090
548.367	7178
548.842	7142
549.316	7156
549.79	7176
550.264	7109
550.739	7213
551.213	7264
551.687	7202
552.162	7224
552.636	7166
553.111	7151
553.585	7286
554.06	7093
554.534	7271
555.009	7227
555.484	7339
555.958	7332
556.433	7369
556.908	7527
557.383	7495
557.858	7619
558.333	7630
558.807	7555
559.282	7663
559.757	7828
560.232	7841
560.708	7705
561.183	7723
561.658	7797
562.133	7764
562.608	7713
563.083	7978
563.559	7806
564.034	7814
564.509	7818
564.985	7898
565.46	7859
565.936	7962
566.411	7911
566.887	7778
567.362	7884
567.838	7861
568.313	7895
568.789	7797
569.265	7824
569.74	7887
570.216	7783
570.692	7838
571.168	7825
571.644	7849
572.12	7805
572.596	7840
573.071	7767
573.547	7973
574.024	8097
574.5	8088
574.976	8090
575.452	8198
575.928	8277
576.404	8322
576.881	8536
577.357	8380
577.833	8490
578.31	8720
578.786	8815
579.262	8941
579.739	8854
580.215	9153
580.692	9182
581.169	9068
581.645	9082
582.122	9314
582.598	9277
583.075	9292
583.552	9353
584.029	9343
584.506	9347
584.982	9286
585.459	9495
585.936	9322
586.413	9430
586.89	9589
587.367	9495
587.844	9575
588.321	9475
588.799	9531
589.276	9494
589.753	9652
590.23	9641
590.707	9563
591.185	9595
591.662	9633
592.139	9753
592.617	9836
593.094	9774
593.572	9874
594.049	9988
594.527	10002
595.004	9933
595.482	10188
595.96	10166
596.437	10183
596.915	10376
597.393	10201
597.871	10410
598.349	10328
598.826	10571
599.304	10533
599.782	10657
600.26	10497
600.738	10736
601.216	10711
601.694	10753
602.173	10788
602.651	10915
603.129	10912
603.607	11040
604.085	11099
604.564	11036
605.042	11060
605.52	11063
605.999	11351
606.477	11102
606.956	11039
607.434	11115
607.913	11191
608.391	11230
608.87	11149
609.348	10952
609.827	11010
610.306	11120
610.785	11173
611.263	11180
611.742	11073
612.221	10925
612.7	11094
613.179	11168
613.658	10997
614.137	11085
614.616	11135
615.095	10924
615.574	11049
616.053	11073
616.532	10948
617.011	11003
617.491	11068
617.97	11066
618.449	11218
618.928	11302
619.408	11176
619.887	11267
620.367	11370
620.846	11509
621.326	11444
621.805	11585
622.285	11548
622.764	11685
623.244	11718
623.724	11724
624.203	11726
624.683	11506
625.163	11782
625.643	11811
626.123	11694
626.602	11874
627.082	11541
627.562	11561
628.042	11885
628.522	11801
629.002	11758
629.482	11786
629.963	11806
630.443	11749
630.923	11850
631.403	11908
631.883	11765
632.364	11747
632.844	11680
633.324	11751
633.805	11801
634.285	11667
634.766	11569
635.246	11604
635.727	11702
636.207	11736
636.688	11691
637.168	11619
637.649	11482
638.13	11413
638.611	11518
639.091	11536
639.572	11476
640.053	11321
640.534	11405
641.015	11424
641.496	11272
641.977	11422
642.458	11241
642.939	11215
643.42	11280
643.901	11382
644.382	11492
644.863	11464
645.345	11421
645.826	11391
646.307	11436
646.788	11665
647.27	11480
647.751	11527
648.233	11571
648.714	11298
649.196	11630
649.677	11571
650.159	11600
650.64	11428
651.122	11576
651.603	11432
652.085	11567
652.567	11641
653.049	11542
653.53	11458
654.012	11538
654.494	11346
654.976	11483
655.458	11504
655.94	11478
656.422	11609
656.904	11494
657.386	11430
657.868	11506
658.35	11488
658.833	11530
659.315	11504
659.797	11365
660.279	11369
660.762	11495
661.244	11395
661.726	11257
662.209	11200
662.691	11183
663.174	10995
663.656	11076
664.139	11102
664.621	10986
665.104	10839
665.587	10893
666.069	10921
666.552	10913
667.035	10771
667.517	10739
668	10726
668.483	10670
668.966	10639
669.449	10641
669.932	10736
670.415	10877
670.898	10779
671.381	10800
671.864	10841
672.347	10794
672.83	10846
673.313	10873
673.797	10757
674.28	10894
674.763	10881
675.247	10942
675.73	10972
676.213	11076
676.697	11136
677.18	11055
677.664	11038
678.147	11054
678.631	11112
679.114	11192
679.598	11118
680.082	11146
680.565	11101
681.049	11093
681.533	11146
682.017	11291
682.5	11234
682.984	11236
683.468	11167
683.952	11018
684.436	11270
684.92	11197
685.404	11243
685.888	11326
686.372	11217
686.856	11249
687.341	11418
687.825	11350
688.309	11438
688.793	11390
689.278	11205
689.762	11275
690.246	11231
690.731	11320
691.215	11357
691.7	11032
692.184	11120
692.669	11094
693.153	11160
693.638	11054
694.122	11112
694.607	11217
695.092	11054
695.577	11108
696.061	10922
696.546	10921
697.031	10884
697.516	10985
698.001	10982
698.486	10858
698.971	10930
699.456	10699
699.941	10773
700.426	10820
700.911	10932
701.396	10804
701.881	10838
702.366	10758
702.852	10729
703.337	10833
703.822	10834
704.308	10826
704.793	10822
705.278	10761
705.764	10753
706.249	10744
706.735	10818
707.22	10936
707.706	10772
708.191	10902
708.677	10835
709.163	10782
709.648	10912
710.134	11073
710.62	10971
711.106	10937
711.592	11018
712.077	10951
712.563	10698
713.049	10724
713.535	10970
714.021	10893
714.507	10814
714.993	10657
715.479	10741
715.966	10617
716.452	10681
716.938	10750
717.424	10454
717.91	10637
718.397	10464
718.883	10339
719.369	10360
719.856	10302
720.342	10480
720.829	10387
721.315	10415
721.802	10355
722.288	10432
722.775	10139
723.262	9903
723.748	10377
724.235	10311
724.722	10421
725.208	10148
725.695	10095
726.182	10060
726.669	9975
727.156	10079
727.643	9987
728.13	10025
728.617	9914
729.104	9887
729.591	9776
730.078	9885
730.565	9930
731.052	9784
731.539	9781
732.027	9661
732.514	9502
733.001	9588
733.488	9594
733.976	9624
734.463	9637
734.951	9584
735.438	9655
735.926	9497
736.413	9526
736.901	9466
737.388	9627
737.876	9647
738.364	9595
738.851	9612
739.339	9544
739.827	9613
740.314	9392
740.802	9510
741.29	9614
741.778	9532
742.266	9532
742.754	9486
743.242	9494
743.73	9327
744.218	9368
744.706	9345
745.194	9530
745.682	9466
746.17	9469
746.659	9391
747.147	9132
747.635	9220
748.123	9285
748.612	9302
749.1	9253
749.589	9311
750.077	9196
750.566	9096
751.054	9145
751.543	9217
752.031	9081
752.52	9128
753.008	8940
753.497	8881
753.986	8828
754.474	8721
754.963	8779
755.452	8692
755.941	8718
756.43	8729
756.919	8704
757.408	8625
757.896	8622
758.385	8620
758.875	8557
759.364	8519
759.853	8566
760.342	8443
760.831	8600
761.32	8502
761.809	8349
762.299	8393
762.788	8446
763.277	8479
763.767	8398
764.256	8448
764.745	8297
765.235	8390
765.724	8167
766.214	8273
766.703	8282
767.193	8217
767.683	8255
768.172	8119
768.662	8188
769.152	8107
769.641	8108
770.131	7930
770.621	8071
771.111	8036
771.601	8109
772.09	8062
772.58	7919
773.07	7869
773.56	7890
774.05	7732
774.54	7778
775.031	7824
775.521	7838
776.011	7855
776.501	7894
776.991	7689
777.482	7728
777.972	7547
778.462	7587
778.953	7704
779.443	7709
779.933	7691
780.424	7558
780.914	7557
781.405	7522
781.895	7466
782.386	7476
782.877	7527
783.367	7464
783.858	7430
784.349	7434
784.839	7337
785.33	7279
785.821	7195
786.312	7158
786.803	7214
787.293	7279
787.784	7239
788.275	7153
788.766	7039
789.257	7106
789.748	6930
790.24	6880
790.731	6966
791.222	6915
791.713	6937
792.204	6963
792.696	6764
793.187	6786
793.678	6703
794.169	6536
794.661	6704
795.152	6685
795.644	6684
796.135	6691
796.627	6736
797.118	6601
797.61	6513
798.101	6461
798.593	6585
799.085	6516
799.576	6611
800.068	6567
800.56	6574
801.052	6376
801.544	6319
802.035	6301
802.527	6243
803.019	6230
803.511	6244
804.003	6261
804.495	6315
804.987	6254
805.479	6088
805.971	6093
806.464	6092
806.956	5959
807.448	6006
807.94	6056
808.433	6066
808.925	6019
809.417	5939
809.91	5891
810.402	5710
810.894	5761
811.387	5816
811.879	5746
812.372	5793
812.865	5743
813.357	5728
813.85	5650
814.342	5582
814.835	5579
815.328	5595
815.821	5566
816.313	5659
816.806	5727
817.299	5738
817.792	5787
818.285	5716
818.778	5740
819.271	5722
819.764	5616
820.257	5619
820.75	5642
821.243	5690
821.736	5656
822.229	5706
822.722	5692
823.216	5776
