Data from lamp4bck_noballon_dubbel_Subt2__132__932.txt Node

Date: Wed Apr 09 12:19:51 CEST 2025
User: fys-lab-0081
Spectrometer: S04999
Trigger mode: 0
Resolution mode: 1024 pixels
Integration Time (sec): 1.000000E-1
Scans to average: 1
Nonlinearity correction enabled: false
Boxcar width: 0
Baseline correction enabled: true
XAxis mode: Wavelengths
Number of Pixels in Spectrum: 1024
>>>>>Begin Spectral Data<<<<<
336.42	10
336.877	13
337.334	10
337.792	15
338.249	17
338.706	13
339.164	13
339.621	11
340.079	17
340.536	15
340.994	10
341.452	17
341.909	17
342.367	12
342.825	14
343.283	24
343.741	15
344.198	16
344.656	17
345.114	19
345.572	23
346.03	20
346.488	19
346.947	19
347.405	21
347.863	20
348.321	23
348.779	24
349.238	19
349.696	29
350.154	21
350.613	29
351.071	32
351.53	28
351.988	31
352.447	26
352.905	24
353.364	32
353.823	32
354.282	35
354.74	28
355.199	34
355.658	40
356.117	34
356.576	38
357.035	39
357.494	41
357.953	40
358.412	44
358.871	41
359.33	39
359.789	40
360.249	46
360.708	47
361.167	48
361.626	47
362.086	48
362.545	53
363.005	51
363.464	51
363.924	56
364.383	55
364.843	60
365.303	64
365.762	68
366.222	65
366.682	66
367.142	73
367.601	64
368.061	67
368.521	75
368.981	70
369.441	78
369.901	74
370.361	77
370.821	70
371.282	75
371.742	81
372.202	82
372.662	83
373.123	85
373.583	87
374.043	92
374.504	89
374.964	92
375.425	98
375.885	98
376.346	105
376.806	110
377.267	98
377.728	111
378.188	109
378.649	109
379.11	110
379.571	108
380.032	123
380.493	120
380.954	128
381.414	127
381.876	130
382.337	136
382.798	140
383.259	143
383.72	150
384.181	149
384.642	160
385.104	167
385.565	171
386.026	175
386.488	185
386.949	183
387.411	187
387.872	195
388.334	197
388.795	201
389.257	207
389.719	209
390.181	215
390.642	216
391.104	227
391.566	225
392.028	237
392.49	250
392.952	250
393.414	261
393.876	264
394.338	270
394.8	270
395.262	271
395.724	288
396.186	289
396.648	292
397.111	294
397.573	301
398.035	299
398.498	309
398.96	309
399.423	317
399.885	319
400.348	325
400.81	336
401.273	341
401.736	344
402.198	361
402.661	369
403.124	368
403.587	387
404.049	396.5
404.512	406
404.975	410
405.438	410
405.901	422
406.364	423
406.827	426
407.29	421
407.754	417
408.217	425
408.68	419
409.143	436
409.607	432
410.07	436
410.533	441
410.997	448
411.46	454
411.924	466
412.387	467
412.851	489
413.314	498
413.778	498
414.242	511
414.705	537
415.169	531
415.633	534
416.097	530
416.561	542
417.024	556
417.488	534
417.952	543
418.416	533
418.88	536
419.344	537
419.809	543
420.273	554
420.737	542
421.201	561
421.665	578
422.13	569
422.594	585
423.059	596
423.523	605
423.987	606
424.452	634
424.916	653
425.381	675
425.846	674
426.31	683
426.775	692
427.24	700
427.704	690
428.169	698
428.634	709
429.099	694
429.564	696
430.029	708
430.494	702
430.959	708
431.424	697
431.889	719
432.354	736
432.819	717
433.284	745
433.75	749
434.215	779
434.68	783
435.146	788
435.611	822
436.077	854
436.542	872
437.008	903
437.473	913
437.939	915
438.404	938
438.87	956
439.336	938
439.801	945
440.267	957
440.733	975
441.199	981
441.665	972
442.131	1000
442.596	978
443.062	1008
443.529	1048
443.995	1051
444.461	1059
444.927	1111
445.393	1100
445.859	1148
446.325	1172
446.792	1236
447.258	1237
447.724	1280
448.191	1336
448.657	1346
449.124	1391
449.59	1375
450.057	1450
450.523	1476
450.99	1494
451.457	1497
451.923	1523
452.39	1502
452.857	1537
453.324	1523
453.791	1546
454.257	1560
454.724	1575
455.191	1561
455.658	1570
456.125	1619
456.592	1579
457.059	1628
457.527	1635
457.994	1695
458.461	1698
458.928	1722
459.396	1723
459.863	1784
460.33	1781
460.798	1794
461.265	1819
461.732	1805
462.2	1844
462.668	1835
463.135	1861
463.603	1808
464.07	1873
464.538	1795
465.006	1852
465.474	1818
465.941	1816
466.409	1817
466.877	1794
467.345	1835
467.813	1799
468.281	1834
468.749	1845
469.217	1831
469.685	1871
470.153	1899
470.621	1882
471.09	1899
471.558	1989
472.026	1959
472.494	2023
472.963	2045
473.431	2079
473.9	2132
474.368	2184
474.837	2205
475.305	2255
475.774	2302
476.242	2356
476.711	2382
477.18	2453
477.648	2422
478.117	2459
478.586	2446
479.055	2440
479.524	2455
479.993	2446
480.462	2439
480.93	2421
481.399	2447
481.869	2459
482.338	2408
482.807	2449
483.276	2464
483.745	2439
484.214	2500
484.684	2536
485.153	2511
485.622	2526
486.092	2590
486.561	2554
487.031	2606
487.5	2677
487.97	2676
488.439	2721
488.909	2788
489.378	2885
489.848	2888
490.318	2957
490.787	3106
491.257	3139
491.727	3169
492.197	3237
492.667	3235
493.137	3265
493.607	3293
494.077	3343
494.547	3305
495.017	3290
495.487	3364
495.957	3443
496.427	3355
496.897	3365
497.368	3407
497.838	3367
498.308	3391
498.779	3406
499.249	3425
499.719	3413
500.19	3445
500.66	3480
501.131	3476
501.602	3544
502.072	3543
502.543	3573
503.014	3681
503.484	3652
503.955	3754
504.426	3851
504.897	3859
505.368	3962
505.838	4024
506.309	4084
506.78	4235
507.251	4353
507.722	4421
508.194	4518
508.665	4597
509.136	4571
509.607	4697
510.078	4786
510.549	4842
511.021	4976
511.492	4946
511.964	5023
512.435	5103
512.906	5040
513.378	5075
513.849	5183
514.321	5205
514.793	5249
515.264	5295
515.736	5369
516.208	5417
516.679	5440
517.151	5521
517.623	5572
518.095	5600
518.567	5619
519.038	5773
519.51	5798
519.982	5859
520.454	5922
520.927	5983
521.399	6035
521.871	6034
522.343	6068
522.815	6180
523.287	6168
523.76	6184
524.232	6301
524.704	6399
525.177	6279
525.649	6327
526.122	6455
526.594	6321
527.067	6455
527.539	6486
528.012	6440
528.484	6446
528.957	6445
529.43	6407
529.903	6424
530.375	6626
530.848	6423
531.321	6501
531.794	6549
532.267	6668
532.74	6488
533.213	6475
533.686	6606
534.159	6572
534.632	6678
535.105	6677
535.578	6820
536.051	6828
536.525	6800
536.998	6793
537.471	6978
537.945	6871
538.418	6923
538.891	6978
539.365	7107
539.838	7126
540.312	7102
540.786	7144
541.259	7192
541.733	7300
542.206	7261
542.68	7142
543.154	7186
543.628	7189
544.101	7312
544.575	7287
545.049	7167
545.523	7345
545.997	7261
546.471	7319
546.945	7331
547.419	7450
547.893	7085
548.367	7174
548.842	7124
549.316	7164
549.79	7190
550.264	7109
550.739	7215
551.213	7266
551.687	7205
552.162	7226
552.636	7159
553.111	7147
553.585	7274
554.06	7097
554.534	7277
555.009	7247
555.484	7331
555.958	7334
556.433	7374
556.908	7524
557.383	7481
557.858	7616
558.333	7627
558.807	7561
559.282	7662
559.757	7826
560.232	7839
560.708	7704
561.183	7722
561.658	7798
562.133	7775
562.608	7705
563.083	7974
563.559	7801
564.034	7812
564.509	7821
564.985	7898
565.46	7864
565.936	7963
566.411	7899
566.887	7767
567.362	7893
567.838	7844
568.313	7904
568.789	7802
569.265	7824
569.74	7883
570.216	7779
570.692	7835
571.168	7807
571.644	7846
572.12	7804
572.596	7830
573.071	7752
573.547	7976
574.024	8098
574.5	8089
574.976	8086
575.452	8194
575.928	8293
576.404	8326
576.881	8532
577.357	8377
577.833	8487
578.31	8741
578.786	8826
579.262	8938
579.739	8859
580.215	9167
580.692	9187
581.169	9079
581.645	9093
582.122	9312
582.598	9275
583.075	9273
583.552	9346
584.029	9338
584.506	9334
584.982	9292
585.459	9481
585.936	9316
586.413	9425
586.89	9587
587.367	9488
587.844	9578
588.321	9479
588.799	9530
589.276	9516
589.753	9660
590.23	9645
590.707	9580
591.185	9597
591.662	9623
592.139	9753
592.617	9825
593.094	9770
593.572	9867
594.049	9985
594.527	10014
595.004	9945
595.482	10173
595.96	10151
596.437	10185
596.915	10372
597.393	10194
597.871	10401
598.349	10322
598.826	10562
599.304	10541
599.782	10657
600.26	10486
600.738	10738
601.216	10719
601.694	10750
602.173	10788
602.651	10916
603.129	10912
603.607	11058
604.085	11092
604.564	11040
605.042	11051
605.52	11058
605.999	11352
606.477	11107
606.956	11043
607.434	11122
607.913	11201
608.391	11222
608.87	11156
609.348	10961
609.827	11002
610.306	11109
610.785	11176
611.263	11174
611.742	11072
612.221	10909
612.7	11074
613.179	11165
613.658	11002
614.137	11079
614.616	11130
615.095	10925
615.574	11050
616.053	11060
616.532	10941
617.011	10995
617.491	11062
617.97	11072
618.449	11214
618.928	11294
619.408	11177
619.887	11277
620.367	11364
620.846	11503
621.326	11452
621.805	11590
622.285	11549
622.764	11680
623.244	11713
623.724	11714
624.203	11733
624.683	11500
625.163	11783
625.643	11806
626.123	11698
626.602	11866
627.082	11542
627.562	11570
628.042	11875
628.522	11788
629.002	11758
629.482	11783
629.963	11812
630.443	11735
630.923	11842
631.403	11899
631.883	11763
632.364	11747
632.844	11671
633.324	11736
633.805	11806
634.285	11661
634.766	11560
635.246	11599
635.727	11693
636.207	11730
636.688	11697
637.168	11638
637.649	11480
638.13	11421
638.611	11526
639.091	11537
639.572	11452
640.053	11318
640.534	11414
641.015	11427
641.496	11265
641.977	11419
642.458	11242
642.939	11216
643.42	11287
643.901	11396
644.382	11500
644.863	11453
645.345	11419
645.826	11396
646.307	11440
646.788	11669
647.27	11480
647.751	11523
648.233	11559
648.714	11296
649.196	11622
649.677	11580
650.159	11600
650.64	11447
651.122	11590
651.603	11417
652.085	11582
652.567	11630
653.049	11526
653.53	11471
654.012	11536
654.494	11339
654.976	11472
655.458	11499
655.94	11476
656.422	11607
656.904	11514
657.386	11416
657.868	11510
658.35	11483
658.833	11526
659.315	11516
659.797	11348
660.279	11378
660.762	11499
661.244	11407
661.726	11251
662.209	11195
662.691	11184
663.174	10979
663.656	11093
664.139	11101
664.621	10985
665.104	10848
665.587	10897
666.069	10915
666.552	10900
667.035	10790
667.517	10737
668	10738
668.483	10667
668.966	10646
669.449	10642
669.932	10721
670.415	10888
670.898	10785
671.381	10786
671.864	10837
672.347	10791
672.83	10860
673.313	10870
673.797	10754
674.28	10884
674.763	10872
675.247	10946
675.73	10966
676.213	11068
676.697	11127
677.18	11056
677.664	11028
678.147	11044
678.631	11103
679.114	11197
679.598	11137
680.082	11142
680.565	11109
681.049	11087
681.533	11136
682.017	11293
682.5	11251
682.984	11231
683.468	11177
683.952	11010
684.436	11273
684.92	11193
685.404	11252
685.888	11323
686.372	11236
686.856	11235
687.341	11420
687.825	11355
688.309	11427
688.793	11385
689.278	11186
689.762	11268
690.246	11232
690.731	11320
691.215	11356
691.7	11041
692.184	11132
692.669	11091
693.153	11152
693.638	11063
694.122	11116
694.607	11219
695.092	11051
695.577	11120
696.061	10915
696.546	10919
697.031	10882
697.516	10996
698.001	10974
698.486	10844
698.971	10921
699.456	10714
699.941	10782
700.426	10811
700.911	10924
701.396	10813
701.881	10841
702.366	10761
702.852	10722
703.337	10833
703.822	10846
704.308	10827
704.793	10810
705.278	10751
705.764	10756
706.249	10742
706.735	10814
707.22	10944
707.706	10775
708.191	10885
708.677	10835
709.163	10785
709.648	10905
710.134	11078
710.62	10968
711.106	10950
711.592	11005
712.077	10941
712.563	10698
713.049	10724
713.535	10962
714.021	10881
714.507	10804
714.993	10652
715.479	10751
715.966	10612
716.452	10688
716.938	10746
717.424	10456
717.91	10639
718.397	10465
718.883	10344
719.369	10358
719.856	10297
720.342	10487
720.829	10378
721.315	10409
721.802	10352
722.288	10422
722.775	10127
723.262	9915
723.748	10372
724.235	10314
724.722	10410
725.208	10140
725.695	10080
726.182	10056
726.669	9976
727.156	10095
727.643	9979
728.13	10000
728.617	9904
729.104	9875
729.591	9778
730.078	9881
730.565	9927
731.052	9777
731.539	9787
732.027	9667
732.514	9505
733.001	9594
733.488	9580
733.976	9616
734.463	9635
734.951	9587
735.438	9660
735.926	9500
736.413	9524
736.901	9473
737.388	9630
737.876	9644
738.364	9593
738.851	9614
739.339	9532
739.827	9627
740.314	9385
740.802	9515
741.29	9611
741.778	9528
742.266	9528
742.754	9504
743.242	9502
743.73	9314
744.218	9363
744.706	9345
745.194	9522
745.682	9471
746.17	9474
746.659	9382
747.147	9136
747.635	9224
748.123	9281
748.612	9288
749.1	9263
749.589	9302
750.077	9194
750.566	9104
751.054	9141
751.543	9213
752.031	9072
752.52	9126
753.008	8938
753.497	8883
753.986	8815
754.474	8711
754.963	8779
755.452	8703
755.941	8721
756.43	8734
756.919	8703
757.408	8623
757.896	8620
758.385	8621
758.875	8549
759.364	8535
759.853	8542
760.342	8447
760.831	8609
761.32	8507
761.809	8334
762.299	8410
762.788	8427
763.277	8467
763.767	8397
764.256	8437
764.745	8299
765.235	8377
765.724	8150
766.214	8257
766.703	8280
767.193	8203
767.683	8264
768.172	8115
768.662	8189
769.152	8112
769.641	8121
770.131	7912
770.621	8058
771.111	8042
771.601	8116
772.09	8060
772.58	7904
773.07	7870
773.56	7892
774.05	7734
774.54	7775
775.031	7818
775.521	7828
776.011	7857
776.501	7889
776.991	7694
777.482	7726
777.972	7547
778.462	7585
778.953	7705
779.443	7700
779.933	7699
780.424	7557
780.914	7555
781.405	7516
781.895	7454
782.386	7485
782.877	7532
783.367	7450
783.858	7430
784.349	7438
784.839	7336
785.33	7280
785.821	7197
786.312	7150
786.803	7213
787.293	7288
787.784	7244
788.275	7155
788.766	7045
789.257	7116
789.748	6926
790.24	6863
790.731	6956
791.222	6911
791.713	6946
792.204	6963
792.696	6749
793.187	6782
793.678	6709
794.169	6535
794.661	6700
795.152	6673
795.644	6679
796.135	6697
796.627	6721
797.118	6596
797.61	6505
798.101	6451
798.593	6591
799.085	6524
799.576	6602
800.068	6574
800.56	6577
801.052	6378
801.544	6308
802.035	6312
802.527	6241
803.019	6220
803.511	6228
804.003	6263
804.495	6318
804.987	6256
805.479	6090
805.971	6103
806.464	6097
806.956	5955
807.448	6001
807.94	6061
808.433	6054
808.925	6014
809.417	5934
809.91	5882
810.402	5713
810.894	5761
811.387	5814
811.879	5747
812.372	5802
812.865	5752
813.357	5731
813.85	5646
814.342	5584
814.835	5573
815.328	5611
815.821	5569
816.313	5647
816.806	5729
817.299	5719
817.792	5782
818.285	5707
818.778	5748
819.271	5712
819.764	5613
820.257	5628
820.75	5646
821.243	5693
821.736	5658
822.229	5698
822.722	5689
823.216	5776
