Data from lamp4bck_noballon_dubbel_Subt2__130__930.txt Node

Date: Wed Apr 09 12:19:51 CEST 2025
User: fys-lab-0081
Spectrometer: S04999
Trigger mode: 0
Resolution mode: 1024 pixels
Integration Time (sec): 1.000000E-1
Scans to average: 1
Nonlinearity correction enabled: false
Boxcar width: 0
Baseline correction enabled: true
XAxis mode: Wavelengths
Number of Pixels in Spectrum: 1024
>>>>>Begin Spectral Data<<<<<
336.42	10
336.877	12
337.334	13
337.792	9
338.249	17
338.706	15
339.164	15
339.621	11
340.079	15
340.536	22
340.994	14
341.452	18
341.909	20
342.367	16
342.825	18
343.283	18
343.741	15
344.198	21
344.656	14
345.114	18
345.572	24
346.03	18
346.488	20
346.947	17
347.405	22
347.863	20
348.321	21
348.779	24
349.238	20
349.696	25
350.154	24
350.613	25
351.071	27
351.53	25
351.988	30
352.447	29
352.905	28
353.364	31
353.823	31
354.282	34
354.74	27
355.199	34
355.658	39
356.117	36
356.576	41
357.035	35
357.494	38
357.953	38
358.412	44
358.871	41
359.33	38
359.789	40
360.249	47
360.708	44
361.167	44
361.626	46
362.086	49
362.545	50
363.005	52
363.464	55
363.924	52
364.383	61
364.843	65
365.303	61
365.762	67
366.222	68
366.682	65
367.142	67
367.601	69
368.061	68
368.521	73
368.981	71
369.441	78
369.901	75
370.361	71
370.821	71
371.282	76
371.742	78
372.202	81
372.662	86
373.123	82
373.583	88
374.043	93
374.504	88
374.964	90
375.425	100
375.885	99
376.346	105
376.806	109
377.267	110
377.728	113
378.188	112
378.649	108
379.11	113
379.571	111
380.032	117
380.493	123
380.954	124
381.414	126
381.876	128
382.337	135
382.798	139
383.259	147
383.72	150
384.181	150
384.642	157
385.104	164
385.565	169
386.026	182
386.488	181
386.949	185
387.411	188
387.872	194
388.334	197
388.795	203
389.257	207
389.719	209
390.181	215
390.642	211
391.104	219
391.566	227
392.028	240
392.49	249
392.952	253
393.414	259
393.876	266
394.338	266
394.8	270
395.262	273
395.724	284
396.186	291
396.648	288
397.111	294
397.573	303
398.035	304
398.498	306
398.96	310
399.423	315
399.885	320
400.348	324
400.81	340
401.273	341
401.736	338
402.198	365
402.661	376
403.124	369
403.587	389
404.049	395.5
404.512	402
404.975	416
405.438	410
405.901	416
406.364	421
406.827	425
407.29	421
407.754	420
408.217	418
408.68	423
409.143	437
409.607	436
410.07	440
410.533	441
410.997	449
411.46	458
411.924	465
412.387	469
412.851	487
413.314	499
413.778	503
414.242	516
414.705	540
415.169	525
415.633	532
416.097	533
416.561	546
417.024	554
417.488	535
417.952	543
418.416	534
418.88	540
419.344	537
419.809	539
420.273	555
420.737	543
421.201	559
421.665	577
422.13	570
422.594	582
423.059	599
423.523	609
423.987	605
424.452	640
424.916	648
425.381	673
425.846	675
426.31	688
426.775	699
427.24	704
427.704	693
428.169	702
428.634	708
429.099	697
429.564	694
430.029	710
430.494	706
430.959	705
431.424	697
431.889	720
432.354	732
432.819	715
433.284	749
433.75	748
434.215	780
434.68	778
435.146	802
435.611	827
436.077	854
436.542	865
437.008	904
437.473	916
437.939	921
438.404	939
438.87	960
439.336	933
439.801	942
440.267	961
440.733	973
441.199	973
441.665	973
442.131	999
442.596	980
443.062	1007
443.529	1047
443.995	1055
444.461	1061
444.927	1101
445.393	1108
445.859	1152
446.325	1174
446.792	1237
447.258	1236
447.724	1285
448.191	1338
448.657	1348
449.124	1383
449.59	1376
450.057	1454
450.523	1474
450.99	1503
451.457	1494
451.923	1520
452.39	1505
452.857	1535
453.324	1524
453.791	1540
454.257	1559
454.724	1577
455.191	1565
455.658	1567
456.125	1624
456.592	1580
457.059	1629
457.527	1639
457.994	1695
458.461	1698
458.928	1717
459.396	1722
459.863	1789
460.33	1775
460.798	1794
461.265	1818
461.732	1808
462.2	1845
462.668	1839
463.135	1859
463.603	1810
464.07	1869
464.538	1798
465.006	1838
465.474	1819
465.941	1815
466.409	1827
466.877	1794
467.345	1836
467.813	1798
468.281	1835
468.749	1852
469.217	1833
469.685	1869
470.153	1899
470.621	1884
471.09	1902
471.558	1991
472.026	1960
472.494	2021
472.963	2040
473.431	2084
473.9	2134
474.368	2180
474.837	2201
475.305	2251
475.774	2297
476.242	2350
476.711	2385
477.18	2448
477.648	2423
478.117	2465
478.586	2448
479.055	2442
479.524	2455
479.993	2451
480.462	2435
480.93	2424
481.399	2449
481.869	2462
482.338	2421
482.807	2455
483.276	2453
483.745	2433
484.214	2499
484.684	2533
485.153	2510
485.622	2524
486.092	2603
486.561	2552
487.031	2608
487.5	2672
487.97	2674
488.439	2716
488.909	2788
489.378	2890
489.848	2888
490.318	2957
490.787	3102
491.257	3147
491.727	3167
492.197	3233
492.667	3237
493.137	3260
493.607	3296
494.077	3339
494.547	3306
495.017	3294
495.487	3378
495.957	3449
496.427	3362
496.897	3368
497.368	3407
497.838	3362
498.308	3388
498.779	3411
499.249	3426
499.719	3417
500.19	3452
500.66	3475
501.131	3489
501.602	3540
502.072	3546
502.543	3578
503.014	3673
503.484	3652
503.955	3754
504.426	3853
504.897	3863
505.368	3957
505.838	4022
506.309	4076
506.78	4227
507.251	4356
507.722	4421
508.194	4513
508.665	4594
509.136	4568
509.607	4694
510.078	4786
510.549	4846
511.021	4984
511.492	4943
511.964	5024
512.435	5093
512.906	5039
513.378	5074
513.849	5199
514.321	5205
514.793	5244
515.264	5294
515.736	5373
516.208	5420
516.679	5439
517.151	5520
517.623	5567
518.095	5602
518.567	5616
519.038	5777
519.51	5799
519.982	5867
520.454	5930
520.927	5982
521.399	6031
521.871	6042
522.343	6063
522.815	6188
523.287	6172
523.76	6195
524.232	6307
524.704	6395
525.177	6289
525.649	6333
526.122	6449
526.594	6319
527.067	6452
527.539	6489
528.012	6447
528.484	6446
528.957	6440
529.43	6415
529.903	6424
530.375	6628
530.848	6420
531.321	6504
531.794	6545
532.267	6663
532.74	6492
533.213	6475
533.686	6612
534.159	6585
534.632	6682
535.105	6679
535.578	6829
536.051	6829
536.525	6799
536.998	6802
537.471	6975
537.945	6874
538.418	6933
538.891	6976
539.365	7115
539.838	7131
540.312	7108
540.786	7147
541.259	7207
541.733	7313
542.206	7267
542.68	7143
543.154	7190
543.628	7188
544.101	7319
544.575	7287
545.049	7159
545.523	7342
545.997	7267
546.471	7337
546.945	7322
547.419	7445
547.893	7101
548.367	7184
548.842	7139
549.316	7160
549.79	7188
550.264	7113
550.739	7217
551.213	7264
551.687	7201
552.162	7224
552.636	7160
553.111	7148
553.585	7291
554.06	7109
554.534	7270
555.009	7248
555.484	7342
555.958	7333
556.433	7374
556.908	7525
557.383	7488
557.858	7617
558.333	7617
558.807	7560
559.282	7665
559.757	7833
560.232	7844
560.708	7712
561.183	7738
561.658	7802
562.133	7775
562.608	7699
563.083	7981
563.559	7804
564.034	7818
564.509	7822
564.985	7900
565.46	7867
565.936	7948
566.411	7890
566.887	7761
567.362	7886
567.838	7847
568.313	7904
568.789	7800
569.265	7820
569.74	7887
570.216	7780
570.692	7836
571.168	7815
571.644	7844
572.12	7811
572.596	7833
573.071	7764
573.547	7984
574.024	8110
574.5	8101
574.976	8095
575.452	8206
575.928	8293
576.404	8327
576.881	8531
577.357	8395
577.833	8497
578.31	8732
578.786	8817
579.262	8956
579.739	8872
580.215	9165
580.692	9189
581.169	9079
581.645	9082
582.122	9323
582.598	9285
583.075	9275
583.552	9350
584.029	9333
584.506	9348
584.982	9297
585.459	9481
585.936	9313
586.413	9421
586.89	9597
587.367	9485
587.844	9572
588.321	9487
588.799	9535
589.276	9506
589.753	9667
590.23	9660
590.707	9576
591.185	9606
591.662	9636
592.139	9767
592.617	9839
593.094	9766
593.572	9866
594.049	9999
594.527	10007
595.004	9952
595.482	10171
595.96	10169
596.437	10196
596.915	10389
597.393	10194
597.871	10403
598.349	10325
598.826	10569
599.304	10541
599.782	10666
600.26	10495
600.738	10740
601.216	10707
601.694	10773
602.173	10786
602.651	10917
603.129	10922
603.607	11065
604.085	11099
604.564	11033
605.042	11063
605.52	11072
605.999	11363
606.477	11111
606.956	11052
607.434	11122.5
607.913	11193
608.391	11227
608.87	11172
609.348	10971
609.827	11004
610.306	11128
610.785	11181
611.263	11173
611.742	11087
612.221	10918
612.7	11101
613.179	11181
613.658	11004
614.137	11094
614.616	11145
615.095	10935
615.574	11067
616.053	11068
616.532	10938
617.011	11002
617.491	11077
617.97	11088
618.449	11215
618.928	11302
619.408	11170
619.887	11271
620.367	11356
620.846	11510
621.326	11455
621.805	11580
622.285	11559
622.764	11684
623.244	11733
623.724	11730
624.203	11738
624.683	11502
625.163	11784
625.643	11813
626.123	11700
626.602	11869
627.082	11540
627.562	11564
628.042	11891
628.522	11802
629.002	11760
629.482	11805
629.963	11814
630.443	11757
630.923	11841
631.403	11904
631.883	11763
632.364	11758
632.844	11690
633.324	11760
633.805	11816
634.285	11657
634.766	11575
635.246	11606
635.727	11705
636.207	11762
636.688	11696
637.168	11630
637.649	11492
638.13	11430
638.611	11511
639.091	11535
639.572	11470
640.053	11340
640.534	11418
641.015	11437
641.496	11271
641.977	11413
642.458	11253
642.939	11202
643.42	11294
643.901	11400
644.382	11494
644.863	11455
645.345	11414
645.826	11405
646.307	11439
646.788	11658
647.27	11490
647.751	11527
648.233	11572
648.714	11304
649.196	11622
649.677	11595
650.159	11599
650.64	11446
651.122	11589
651.603	11430
652.085	11584
652.567	11640
653.049	11527
653.53	11460
654.012	11553
654.494	11354
654.976	11484
655.458	11501
655.94	11468
656.422	11618
656.904	11514
657.386	11424
657.868	11504
658.35	11488
658.833	11530
659.315	11503
659.797	11367
660.279	11389
660.762	11507
661.244	11412
661.726	11260
662.209	11197
662.691	11186
663.174	10989
663.656	11086
664.139	11116
664.621	10976
665.104	10839
665.587	10891
666.069	10924
666.552	10915
667.035	10785
667.517	10743
668	10735
668.483	10695
668.966	10639
669.449	10640
669.932	10725
670.415	10889
670.898	10798
671.381	10805
671.864	10838
672.347	10791
672.83	10860
673.313	10874
673.797	10767
674.28	10899
674.763	10885
675.247	10953
675.73	10976
676.213	11069
676.697	11129
677.18	11061
677.664	11048
678.147	11050
678.631	11104
679.114	11202
679.598	11141
680.082	11148
680.565	11117
681.049	11106
681.533	11148
682.017	11303
682.5	11245
682.984	11259
683.468	11159
683.952	11004
684.436	11275
684.92	11198
685.404	11250
685.888	11331
686.372	11235
686.856	11253
687.341	11422
687.825	11366
688.309	11434
688.793	11381
689.278	11177
689.762	11293
690.246	11240
690.731	11322
691.215	11344
691.7	11046
692.184	11128
692.669	11094
693.153	11156
693.638	11063
694.122	11100
694.607	11212
695.092	11063
695.577	11116
696.061	10923
696.546	10917
697.031	10890
697.516	11009
698.001	10987
698.486	10854
698.971	10930
699.456	10723
699.941	10780
700.426	10819
700.911	10927
701.396	10810
701.881	10854
702.366	10759
702.852	10725
703.337	10853
703.822	10842
704.308	10834
704.793	10814
705.278	10772
705.764	10760
706.249	10731
706.735	10827
707.22	10946
707.706	10771
708.191	10900
708.677	10849
709.163	10795
709.648	10920
710.134	11086
710.62	10994
711.106	10935
711.592	11029
712.077	10944
712.563	10704
713.049	10722
713.535	10955
714.021	10891
714.507	10814
714.993	10648
715.479	10761
715.966	10612
716.452	10689
716.938	10740
717.424	10452
717.91	10641
718.397	10459
718.883	10356
719.369	10358
719.856	10308
720.342	10484
720.829	10379
721.315	10413
721.802	10357
722.288	10436
722.775	10142
723.262	9920
723.748	10379
724.235	10310
724.722	10418
725.208	10149
725.695	10083
726.182	10067
726.669	9982
727.156	10088
727.643	9991
728.13	10017
728.617	9918
729.104	9872
729.591	9800
730.078	9880
730.565	9928
731.052	9781
731.539	9798
732.027	9670
732.514	9505
733.001	9591
733.488	9599
733.976	9629
734.463	9626
734.951	9587
735.438	9659
735.926	9498
736.413	9537
736.901	9468
737.388	9631
737.876	9641
738.364	9606
738.851	9615
739.339	9555
739.827	9613
740.314	9393
740.802	9523
741.29	9617
741.778	9531
742.266	9533
742.754	9491
743.242	9510
743.73	9326
744.218	9374
744.706	9346
745.194	9520
745.682	9468
746.17	9464
746.659	9391
747.147	9130
747.635	9222
748.123	9296
748.612	9291
749.1	9267
749.589	9319
750.077	9186
750.566	9095
751.054	9144
751.543	9222
752.031	9079
752.52	9127
753.008	8927
753.497	8871
753.986	8823
754.474	8718
754.963	8789
755.452	8692
755.941	8718
756.43	8751
756.919	8712
757.408	8635
757.896	8620
758.385	8612
758.875	8556
759.364	8539
759.853	8550
760.342	8443
760.831	8621
761.32	8506
761.809	8350
762.299	8409
762.788	8442
763.277	8481
763.767	8398
764.256	8434
764.745	8308
765.235	8387
765.724	8152
766.214	8271
766.703	8282
767.193	8210
767.683	8266
768.172	8128
768.662	8185
769.152	8128
769.641	8122
770.131	7925
770.621	8072
771.111	8033
771.601	8117
772.09	8064
772.58	7915
773.07	7875
773.56	7884
774.05	7737
774.54	7781
775.031	7820
775.521	7848
776.011	7850
776.501	7891
776.991	7700
777.482	7736
777.972	7549
778.462	7598
778.953	7701
779.443	7703
779.933	7705
780.424	7564
780.914	7564
781.405	7526
781.895	7459
782.386	7489
782.877	7532
783.367	7459
783.858	7439
784.349	7435
784.839	7342
785.33	7293
785.821	7194
786.312	7158
786.803	7221
787.293	7292
787.784	7243
788.275	7155
788.766	7048
789.257	7121
789.748	6922
790.24	6866
790.731	6964
791.222	6911
791.713	6935
792.204	6970
792.696	6761
793.187	6776
793.678	6704
794.169	6542
794.661	6710
795.152	6681
795.644	6691
796.135	6693
796.627	6727
797.118	6590
797.61	6512
798.101	6457
798.593	6587
799.085	6527
799.576	6608
800.068	6569
800.56	6583
801.052	6373
801.544	6312
802.035	6314
802.527	6243
803.019	6235
803.511	6232
804.003	6262
804.495	6304
804.987	6264
805.479	6088
805.971	6094
806.464	6090
806.956	5959
807.448	6005
807.94	6061
808.433	6066
808.925	6015
809.417	5951
809.91	5890
810.402	5721
810.894	5764
811.387	5806
811.879	5743
812.372	5802
812.865	5749
813.357	5733
813.85	5646
814.342	5583
814.835	5578
815.328	5606
815.821	5569
816.313	5656
816.806	5732
817.299	5728
817.792	5798
818.285	5708
818.778	5749
819.271	5731
819.764	5610
820.257	5631
820.75	5648
821.243	5692
821.736	5660
822.229	5712
822.722	5694
823.216	5777
