Data from lamp4bck_noballon_Subt4__29__122.txt Node

Date: Wed Apr 09 09:41:04 CEST 2025
User: fys-lab-0081
Spectrometer: S04999
Trigger mode: 0
Resolution mode: 1024 pixels
Integration Time (sec): 1.000000E-1
Scans to average: 1
Nonlinearity correction enabled: false
Boxcar width: 0
Baseline correction enabled: true
XAxis mode: Wavelengths
Number of Pixels in Spectrum: 1024
>>>>>Begin Spectral Data<<<<<
336.42	9
336.877	7
337.334	10
337.792	5
338.249	12
338.706	14
339.164	10
339.621	10
340.079	13
340.536	13
340.994	16
341.452	5
341.909	13
342.367	11
342.825	10
343.283	16
343.741	13
344.198	14
344.656	13
345.114	13
345.572	17
346.03	19
346.488	16
346.947	13
347.405	17
347.863	20
348.321	24
348.779	18
349.238	22
349.696	26
350.154	24
350.613	23
351.071	20
351.53	25
351.988	25
352.447	26
352.905	26
353.364	23
353.823	31
354.282	33
354.74	29
355.199	29
355.658	31
356.117	31
356.576	39
357.035	36
357.494	36
357.953	39
358.412	41
358.871	33
359.33	38
359.789	40
360.249	36
360.708	46
361.167	42
361.626	51
362.086	44
362.545	48
363.005	57
363.464	48
363.924	50
364.383	58
364.843	56
365.303	61
365.762	63
366.222	57
366.682	65
367.142	66
367.601	67
368.061	65
368.521	69
368.981	70
369.441	73
369.901	75
370.361	73
370.821	68
371.282	79
371.742	78
372.202	80
372.662	82
373.123	83
373.583	83
374.043	88
374.504	86
374.964	90
375.425	95
375.885	95
376.346	100
376.806	98
377.267	106
377.728	110
378.188	110
378.649	111
379.11	110
379.571	116
380.032	119
380.493	122
380.954	126
381.414	124
381.876	135
382.337	138
382.798	146
383.259	151
383.72	152
384.181	157
384.642	161
385.104	174
385.565	178
386.026	175
386.488	183
386.949	184
387.411	190
387.872	190
388.334	201
388.795	205
389.257	218
389.719	215
390.181	213
390.642	225
391.104	229
391.566	233
392.028	249
392.49	246
392.952	254
393.414	265
393.876	262
394.338	275
394.8	270
395.262	282
395.724	290
396.186	293
396.648	295
397.111	301
397.573	304
398.035	306
398.498	313
398.96	316
399.423	330
399.885	340
400.348	333
400.81	357
401.273	351
401.736	360
402.198	372
402.661	385
403.124	392
403.587	402
404.049	413
404.512	424
404.975	429
405.438	420
405.901	431
406.364	433
406.827	437
407.29	436
407.754	436
408.217	437
408.68	439
409.143	447
409.607	458
410.07	458
410.533	458
410.997	474
411.46	472
411.924	487
412.387	492
412.851	508
413.314	526
413.778	523
414.242	530
414.705	556
415.169	543
415.633	551
416.097	552
416.561	563
417.024	579
417.488	560
417.952	571
418.416	572
418.88	572
419.344	573
419.809	570
420.273	588
420.737	578
421.201	589
421.665	612
422.13	608
422.594	630
423.059	650
423.523	659
423.987	661
424.452	680
424.916	703
425.381	724
425.846	726
426.31	724
426.775	741
427.24	754
427.704	736
428.169	754
428.634	754
429.099	745
429.564	742
430.029	760
430.494	759
430.959	771
431.424	752
431.889	778
432.354	790
432.819	783
433.284	817
433.75	816
434.215	864
434.68	869
435.146	883
435.611	922
436.077	946
436.542	961
437.008	991
437.473	995
437.939	1016
438.404	1037
438.87	1054
439.336	1031
439.801	1023
440.267	1047
440.733	1068
441.199	1075
441.665	1067
442.131	1107
442.596	1083
443.062	1118
443.529	1165
443.995	1182
444.461	1193
444.927	1249
445.393	1254
445.859	1316
446.325	1333
446.792	1416
447.258	1418
447.724	1455
448.191	1511
448.657	1524
449.124	1574
449.59	1539
450.057	1634
450.523	1631
450.99	1668
451.457	1655
451.923	1686
452.39	1674
452.857	1714
453.324	1710
453.791	1744
454.257	1744
454.724	1762
455.191	1767
455.658	1759
456.125	1827
456.592	1785
457.059	1827
457.527	1860
457.994	1919
458.461	1912
458.928	1953
459.396	1947
459.863	2017
460.33	2007
460.798	2018
461.265	2028
461.732	2006
462.2	2059
462.668	2041
463.135	2091
463.603	2037
464.07	2082
464.538	2024
465.006	2097
465.474	2039
465.941	2052
466.409	2080
466.877	2034
467.345	2098
467.813	2074
468.281	2102
468.749	2114
469.217	2115
469.685	2136
470.153	2179
470.621	2170
471.09	2176
471.558	2275
472.026	2274
472.494	2349
472.963	2388
473.431	2456
473.9	2508
474.368	2556
474.837	2594
475.305	2627
475.774	2682
476.242	2738
476.711	2732
477.18	2799
477.648	2795
478.117	2820
478.586	2788
479.055	2796
479.524	2813
479.993	2815
480.462	2803
480.93	2808
481.399	2828
481.869	2840
482.338	2821
482.807	2845
483.276	2835
483.745	2842
484.214	2928
484.684	2965
485.153	2967
485.622	2987
486.092	3082
486.561	3006
487.031	3116
487.5	3189
487.97	3199
488.439	3267
488.909	3355
489.378	3482
489.848	3475
490.318	3570
490.787	3721
491.257	3758
491.727	3784
492.197	3873
492.667	3892
493.137	3922
493.607	3948
494.077	3993
494.547	3918
495.017	3913
495.487	3988
495.957	4058
496.427	3987
496.897	4003
497.368	4051
497.838	4003
498.308	4059
498.779	4094
499.249	4108
499.719	4144
500.19	4181
500.66	4198
501.131	4220
501.602	4321
502.072	4334
502.543	4378
503.014	4539
503.484	4536
503.955	4648
504.426	4810
504.897	4847
505.368	4934
505.838	4973
506.309	5105
506.78	5280
507.251	5373
507.722	5446
508.194	5607
508.665	5683
509.136	5619
509.607	5783
510.078	5885
510.549	5921
511.021	6066
511.492	6062
511.964	6152
512.435	6252
512.906	6188
513.378	6260
513.849	6363
514.321	6358
514.793	6431
515.264	6500
515.736	6558
516.208	6662
516.679	6715
517.151	6757
517.623	6808
518.095	6901
518.567	6992
519.038	7136
519.51	7098
519.982	7221
520.454	7309
520.927	7398
521.399	7455
521.871	7503
522.343	7540
522.815	7647
523.287	7616
523.76	7656
524.232	7786
524.704	7823
525.177	7692
525.649	7792
526.122	7918
526.594	7688
527.067	7851
527.539	7939
528.012	7891
528.484	7886
528.957	7929
529.43	7946
529.903	7904
530.375	8165
530.848	7951
531.321	8054
531.794	8044
532.267	8190
532.74	8064
533.213	8083
533.686	8210
534.159	8179
534.632	8352
535.105	8349
535.578	8492
536.051	8470
536.525	8497
536.998	8539
537.471	8724
537.945	8584
538.418	8695
538.891	8772
539.365	8867
539.838	8920
540.312	8920
540.786	9022
541.259	8987
541.733	9044
542.206	9016
542.68	8897
543.154	8912
543.628	8890
544.101	9112
544.575	9041
545.049	8817
545.523	8947
545.997	8901
546.471	9040
546.945	8975
547.419	9114
547.893	8759
548.367	8922
548.842	8854
549.316	8898
549.79	8935
550.264	8860
550.739	8943
551.213	8887
551.687	8924
552.162	9055
552.636	9032
553.111	8977
553.585	9126
554.06	8989
554.534	9218
555.009	9170
555.484	9279
555.958	9339
556.433	9391
556.908	9506
557.383	9398
557.858	9572
558.333	9629
558.807	9591
559.282	9647
559.757	9922
560.232	9976
560.708	9805
561.183	9741
561.658	9838
562.133	9823
562.608	9795
563.083	10038
563.559	9749
564.034	9816
564.509	9883
564.985	9897
565.46	9708
565.936	9824
566.411	9839
566.887	9777
567.362	9872
567.838	9791
568.313	9902
568.789	9861
569.265	9856
569.74	9883
570.216	9783
570.692	9977
571.168	10011
571.644	9956
572.12	9930
572.596	9991
573.071	10022
573.547	10258
574.024	10266
574.5	10341
574.976	10451
575.452	10655
575.928	10731
576.404	10802
576.881	11139
577.357	10954
577.833	10969
578.31	11227
578.786	11382
579.262	11596
579.739	11482
580.215	11739
580.692	11644
581.169	11540
581.645	11574
582.122	11868
582.598	11816
583.075	11806
583.552	11918
584.029	11958
584.506	11900
584.982	11784
585.459	11950
585.936	11845
586.413	11996
586.89	12192
587.367	12051
587.844	12237
588.321	12146
588.799	12153
589.276	11978
589.753	12066
590.23	12151
590.707	12199
591.185	12232
591.662	12148
592.139	12253
592.617	12430
593.094	12428
593.572	12454
594.049	12527
594.527	12603
595.004	12687
595.482	12948
595.96	12806
596.437	12758
596.915	13092
597.393	13038
597.871	13366
598.349	13181
598.826	13361
599.304	13359
599.782	13649
600.26	13538
600.738	13757
601.216	13609
601.694	13714
602.173	13876
602.651	13969
603.129	13791
603.607	13855
604.085	13936
604.564	13912
605.042	13867
605.52	13710
605.999	14027
606.477	13874
606.956	13969
607.434	14027
607.913	14085
608.391	14030
608.87	14004
609.348	13878
609.827	13943
610.306	13935
610.785	13931
611.263	14020
611.742	14023
612.221	13853
612.7	13920
613.179	13929
613.658	13767
614.137	14068
614.616	14202
615.095	13912
615.574	14012
616.053	14117
616.532	14111
617.011	14171
617.491	14236
617.97	14165
618.449	14285
618.928	14391
619.408	14295
619.887	14374
620.367	14443
620.846	14602
621.326	14576
621.805	14885
622.285	14882
622.764	14884
623.244	14879
623.724	14879
624.203	14880
624.683	14604
625.163	14880
625.643	14881
626.123	14882
626.602	14877
627.082	14881
627.562	14880
628.042	14886
628.522	14882
629.002	14883
629.482	14881
629.963	14878
630.443	14882
630.923	14887
631.403	14876
631.883	14882
632.364	14882
632.844	14880
633.324	14884
633.805	14882
634.285	14879
634.766	14638
635.246	14667
635.727	14880
636.207	14877
636.688	14670
637.168	14658
637.649	14550
638.13	14472
638.611	14575
639.091	14639
639.572	14586
640.053	14487
640.534	14577
641.015	14530
641.496	14343
641.977	14594
642.458	14483
642.939	14516
643.42	14529
643.901	14558
644.382	14878
644.863	14878
645.345	14884
645.826	14879
646.307	14621
646.788	14889
647.27	14599
647.751	14880
648.233	14880
648.714	14571
649.196	14875
649.677	14881
650.159	14882
650.64	14653
651.122	14882
651.603	14672
652.085	14882
652.567	14879
653.049	14677
653.53	14882
654.012	14881
654.494	14658
654.976	14880
655.458	14883
655.94	14883
656.422	14880
656.904	14881
657.386	14599
657.868	14580
658.35	14476
658.833	14568
659.315	14582
659.797	14402
660.279	14425
660.762	14528
661.244	14450
661.726	14277
662.209	14237
662.691	14154
663.174	13887
663.656	14003
664.139	14057
664.621	14007
665.104	13911
665.587	14035
666.069	14061
666.552	14041
667.035	13884
667.517	13910
668	13985
668.483	13951
668.966	13811
669.449	13741
669.932	13778
670.415	13923
670.898	13826
671.381	13890
671.864	13948
672.347	13862
672.83	13906
673.313	13946
673.797	13864
674.28	14071
674.763	14104
675.247	14163
675.73	14167
676.213	14279
676.697	14331
677.18	14249
677.664	14228
678.147	14229
678.631	14274
679.114	14405
679.598	14426
680.082	14481
680.565	14397
681.049	14345
681.533	14361
682.017	14550
682.5	14548
682.984	14597
683.468	14516
683.952	14255
684.436	14449
684.92	14299
685.404	14403
685.888	14563
686.372	14519
686.856	14570
687.341	14660
687.825	14455
688.309	14441
688.793	14383
689.278	14178
689.762	14339
690.246	14334
690.731	14419
691.215	14460
691.7	14123
692.184	14244
692.669	14228
693.153	14344
693.638	14183
694.122	14140
694.607	14195
695.092	14027
695.577	14193
696.061	13974
696.546	13971
697.031	13924
697.516	14055
698.001	14071
698.486	13995
698.971	14126
699.456	13840
699.941	13807
700.426	13790
700.911	13880
701.396	13719
701.881	13793
702.366	13754
702.852	13748
703.337	13878
703.822	13847
704.308	13801
704.793	13837
705.278	13844
705.764	13913
706.249	13837
706.735	13847
707.22	13928
707.706	13668
708.191	13824
708.677	13833
709.163	13781
709.648	13882
710.134	14025
710.62	13844
711.106	13814
711.592	13974
712.077	13976
712.563	13718
713.049	13705
713.535	13901
714.021	13813
714.507	13742
714.993	13635
715.479	13801
715.966	13608
716.452	13601
716.938	13566
717.424	13168
717.91	13432
718.397	13353
718.883	13282
719.369	13346
719.856	13240
720.342	13372
720.829	13210
721.315	13274
721.802	13193
722.288	13301
722.775	12869
723.262	12518
723.748	13028
724.235	12951
724.722	13096
725.208	12883
725.695	12898
726.182	12884
726.669	12724
727.156	12760
727.643	12616
728.13	12645
728.617	12595
729.104	12619
729.591	12519
730.078	12611
730.565	12660
731.052	12472
731.539	12470
732.027	12363
732.514	12238
733.001	12319
733.488	12184
733.976	12120
734.463	12088
734.951	12100
735.438	12257
735.926	12107
736.413	12167
736.901	12132
737.388	12315
737.876	12264
738.364	12122
738.851	12096
739.339	11993
739.827	12044
740.314	11707
740.802	11816
741.29	11899
741.778	11821
742.266	11854
742.754	11906
743.242	11996
743.73	11746
744.218	11689
744.706	11553
745.194	11681
745.682	11634
746.17	11677
746.659	11724
747.147	11467
747.635	11568
748.123	11570
748.612	11448
749.1	11360
749.589	11449
750.077	11347
750.566	11257
751.054	11275
751.543	11254
752.031	11000
752.52	10971
753.008	10775
753.497	10761
753.986	10699
754.474	10653
754.963	10748
755.452	10623
755.941	10592
756.43	10590
756.919	10546
757.408	10494
757.896	10532
758.385	10587
758.875	10492
759.364	10412
759.853	10394
760.342	10241
760.831	10453
761.32	10313
761.809	10119
762.299	10150
762.788	10181
763.277	10145
763.767	9994
764.256	9990
764.745	9875
765.235	10037
765.724	9750
766.214	9823
766.703	9760
767.193	9643
767.683	9700
768.172	9548
768.662	9628
769.152	9544
769.641	9476
770.131	9241
770.621	9386
771.111	9308
771.601	9330
772.09	9250
772.58	9126
773.07	9110
773.56	9160
774.05	9001
774.54	8984
775.031	8949
775.521	8916
776.011	8908
776.501	9013
776.991	8851
777.482	8945
777.972	8716
778.462	8701
778.953	8789
779.443	8724
779.933	8652
780.424	8491
780.914	8508
781.405	8492
781.895	8412
782.386	8406
782.877	8373
783.367	8222
783.858	8182
784.349	8211
784.839	8181
785.33	8208
785.821	8118
786.312	8033
786.803	8064
787.293	8073
787.784	7911
788.275	7790
788.766	7723
789.257	7874
789.748	7736
790.24	7682
790.731	7744
791.222	7628
791.713	7588
792.204	7598
792.696	7378
793.187	7442
793.678	7370
794.169	7197
794.661	7316
795.152	7258
795.644	7235
796.135	7192
796.627	7222
797.118	7093
797.61	7051
798.101	6986
798.593	7084
799.085	6977
799.576	6963
800.068	6851
800.56	6829
801.052	6657
801.544	6603
802.035	6627
802.527	6541
803.019	6510
803.511	6472
804.003	6462
804.495	6526
804.987	6432
805.479	6280
805.971	6322
806.464	6310
806.956	6164
807.448	6167
807.94	6182
808.433	6138
808.925	6124
809.417	6080
809.91	6074
810.402	5924
810.894	5951
811.387	5963
811.879	5829
812.372	5812
812.865	5708
813.357	5698
813.85	5660
814.342	5640
814.835	5646
815.328	5634
815.821	5566
816.313	5571
816.806	5577
817.299	5519
817.792	5553
818.285	5517
818.778	5592
819.271	5578
819.764	5473
820.257	5464
820.75	5463
821.243	5447
821.736	5353
822.229	5416
822.722	5423
823.216	5530
