Data from lamp4bck_noballon_Subt4__0__93.txt Node

Date: Wed Apr 09 09:41:01 CEST 2025
User: fys-lab-0081
Spectrometer: S04999
Trigger mode: 0
Resolution mode: 1024 pixels
Integration Time (sec): 1.000000E-1
Scans to average: 1
Nonlinearity correction enabled: false
Boxcar width: 0
Baseline correction enabled: true
XAxis mode: Wavelengths
Number of Pixels in Spectrum: 1024
>>>>>Begin Spectral Data<<<<<
336.42	9
336.877	9
337.334	12
337.792	8
338.249	12
338.706	9
339.164	5
339.621	8
340.079	10
340.536	15
340.994	18
341.452	4
341.909	13
342.367	10
342.825	12
343.283	12
343.741	11
344.198	13
344.656	15
345.114	16
345.572	16
346.03	21
346.488	18
346.947	12
347.405	20
347.863	16
348.321	23
348.779	20
349.238	20
349.696	20
350.154	22
350.613	19
351.071	24
351.53	27
351.988	25
352.447	26
352.905	28
353.364	21
353.823	32
354.282	32
354.74	30
355.199	32
355.658	32
356.117	32
356.576	32
357.035	33
357.494	36
357.953	41
358.412	40
358.871	32
359.33	39
359.789	42
360.249	38
360.708	45
361.167	41
361.626	46
362.086	46
362.545	50
363.005	53
363.464	48
363.924	54
364.383	61
364.843	58
365.303	59
365.762	59
366.222	59
366.682	65
367.142	66
367.601	65
368.061	61
368.521	72
368.981	71
369.441	72
369.901	77
370.361	70
370.821	74
371.282	75
371.742	77
372.202	75
372.662	83
373.123	85
373.583	85
374.043	90
374.504	90
374.964	88
375.425	93
375.885	98
376.346	102
376.806	99
377.267	107
377.728	108
378.188	106
378.649	115
379.11	112
379.571	115
380.032	115
380.493	118
380.954	124
381.414	124
381.876	135
382.337	142
382.798	142
383.259	152
383.72	149
384.181	161
384.642	160
385.104	172
385.565	179
386.026	174
386.488	182
386.949	186
387.411	192
387.872	194
388.334	203
388.795	207
389.257	211
389.719	220
390.181	218
390.642	227
391.104	227
391.566	232
392.028	250
392.49	245
392.952	255
393.414	267
393.876	261
394.338	269
394.8	275
395.262	282
395.724	286
396.186	292
396.648	296
397.111	301
397.573	309
398.035	306
398.498	317
398.96	320
399.423	323
399.885	338
400.348	337
400.81	361
401.273	350
401.736	360
402.198	375
402.661	391
403.124	385
403.587	400
404.049	409.5
404.512	419
404.975	433
405.438	417
405.901	431
406.364	432
406.827	434
407.29	441
407.754	440
408.217	442
408.68	437
409.143	449
409.607	461
410.07	458
410.533	464
410.997	477
411.46	472
411.924	488
412.387	491
412.851	514
413.314	530
413.778	525
414.242	543
414.705	553
415.169	546
415.633	557
416.097	556
416.561	558
417.024	583
417.488	557
417.952	568
418.416	571
418.88	574
419.344	571
419.809	574
420.273	589
420.737	582
421.201	593
421.665	616
422.13	610
422.594	634
423.059	646
423.523	658
423.987	660
424.452	683
424.916	702
425.381	718
425.846	724
426.31	724
426.775	741
427.24	758
427.704	735
428.169	758
428.634	754
429.099	746
429.564	748
430.029	771
430.494	764
430.959	772
431.424	756
431.889	785
432.354	796
432.819	786
433.284	820
433.75	824
434.215	865
434.68	870
435.146	886
435.611	924
436.077	954
436.542	957
437.008	994
437.473	996
437.939	1018
438.404	1040
438.87	1058
439.336	1033
439.801	1027
440.267	1052
440.733	1071
441.199	1070
441.665	1070
442.131	1116
442.596	1089
443.062	1128
443.529	1169
443.995	1186
444.461	1205
444.927	1254
445.393	1263
445.859	1318
446.325	1340
446.792	1420
447.258	1416
447.724	1453
448.191	1511
448.657	1522
449.124	1576
449.59	1552
450.057	1630
450.523	1637
450.99	1674
451.457	1662
451.923	1685
452.39	1681
452.857	1725
453.324	1709
453.791	1748
454.257	1746
454.724	1765
455.191	1777
455.658	1771
456.125	1825
456.592	1793
457.059	1839
457.527	1864
457.994	1926
458.461	1916
458.928	1958
459.396	1950
459.863	2026
460.33	2006
460.798	2016
461.265	2030
461.732	2012
462.2	2068
462.668	2054
463.135	2102
463.603	2041
464.07	2088
464.538	2026
465.006	2104
465.474	2050
465.941	2051
466.409	2083
466.877	2036
467.345	2107
467.813	2085
468.281	2110
468.749	2123
469.217	2114
469.685	2140
470.153	2189
470.621	2186
471.09	2181
471.558	2279
472.026	2284
472.494	2365
472.963	2393
473.431	2469
473.9	2506
474.368	2557
474.837	2598
475.305	2635
475.774	2688
476.242	2753
476.711	2747
477.18	2818
477.648	2797
478.117	2834
478.586	2788
479.055	2793
479.524	2823
479.993	2819
480.462	2813
480.93	2819
481.399	2832
481.869	2849
482.338	2827
482.807	2858
483.276	2842
483.745	2854
484.214	2928
484.684	2975
485.153	2971
485.622	2989
486.092	3089
486.561	3009
487.031	3128
487.5	3198
487.97	3205
488.439	3276
488.909	3373
489.378	3487
489.848	3490
490.318	3573
490.787	3724
491.257	3768
491.727	3794
492.197	3892
492.667	3897
493.137	3943
493.607	3958
494.077	3993
494.547	3920
495.017	3931
495.487	4005
495.957	4064
496.427	3991
496.897	4001
497.368	4060
497.838	4015
498.308	4062
498.779	4104
499.249	4114
499.719	4155
500.19	4196
500.66	4207
501.131	4228
501.602	4331
502.072	4347
502.543	4388
503.014	4549
503.484	4536
503.955	4663
504.426	4821
504.897	4857
505.368	4943
505.838	4989
506.309	5114
506.78	5291
507.251	5387
507.722	5459
508.194	5625
508.665	5700
509.136	5641
509.607	5792
510.078	5892
510.549	5928
511.021	6079
511.492	6076
511.964	6172
512.435	6256
512.906	6196
513.378	6270
513.849	6384
514.321	6370
514.793	6443
515.264	6514
515.736	6569
516.208	6672
516.679	6734
517.151	6755
517.623	6814
518.095	6926
518.567	7027
519.038	7160
519.51	7115
519.982	7240
520.454	7323
520.927	7411
521.399	7476
521.871	7532
522.343	7574
522.815	7656
523.287	7633
523.76	7675
524.232	7814
524.704	7847
525.177	7713
525.649	7815
526.122	7925
526.594	7714
527.067	7873
527.539	7949
528.012	7908
528.484	7895
528.957	7939
529.43	7960
529.903	7923
530.375	8159
530.848	7967
531.321	8064
531.794	8076
532.267	8210
532.74	8065
533.213	8106
533.686	8226
534.159	8195
534.632	8374
535.105	8367
535.578	8506
536.051	8497
536.525	8506
536.998	8558
537.471	8734
537.945	8596
538.418	8721
538.891	8790
539.365	8876
539.838	8940
540.312	8932
540.786	9040
541.259	9008
541.733	9059
542.206	9025
542.68	8911
543.154	8936
543.628	8907
544.101	9128
544.575	9069
545.049	8828
545.523	8974
545.997	8919
546.471	9049
546.945	8990
547.419	9128
547.893	8780
548.367	8944
548.842	8865
549.316	8900
549.79	8949
550.264	8871
550.739	8962
551.213	8909
551.687	8937
552.162	9077
552.636	9038
553.111	8988
553.585	9154
554.06	9019
554.534	9240
555.009	9177
555.484	9306
555.958	9361
556.433	9404
556.908	9532
557.383	9403
557.858	9589
558.333	9639
558.807	9613
559.282	9668
559.757	9923
560.232	9996
560.708	9817
561.183	9763
561.658	9841
562.133	9845
562.608	9812
563.083	10053
563.559	9772
564.034	9817
564.509	9902
564.985	9915
565.46	9718
565.936	9835
566.411	9850
566.887	9795
567.362	9876
567.838	9812
568.313	9929
568.789	9860
569.265	9863
569.74	9911
570.216	9805
570.692	10001
571.168	10019
571.644	9978
572.12	9942
572.596	10011
573.071	10039
573.547	10286
574.024	10295
574.5	10365
574.976	10455
575.452	10661
575.928	10752
576.404	10812
576.881	11152
577.357	10970
577.833	10982
578.31	11254
578.786	11397
579.262	11622
579.739	11507
580.215	11751
580.692	11679
581.169	11562
581.645	11583
582.122	11881
582.598	11815
583.075	11824
583.552	11944
584.029	11976
584.506	11916
584.982	11801
585.459	11978
585.936	11867
586.413	12016
586.89	12200
587.367	12080
587.844	12247
588.321	12164
588.799	12179
589.276	11983
589.753	12102
590.23	12179
590.707	12239
591.185	12244
591.662	12171
592.139	12262
592.617	12440
593.094	12436
593.572	12476
594.049	12546
594.527	12622
595.004	12699
595.482	12976
595.96	12824
596.437	12773
596.915	13115
597.393	13060
597.871	13378
598.349	13178
598.826	13375
599.304	13380
599.782	13680
600.26	13567
600.738	13758
601.216	13608
601.694	13738
602.173	13885
602.651	13990
603.129	13809
603.607	13879
604.085	13968
604.564	13952
605.042	13877
605.52	13712
605.999	14050
606.477	13893
606.956	13999
607.434	14045
607.913	14091
608.391	14037
608.87	14007
609.348	13893
609.827	13954
610.306	13950
610.785	13946
611.263	14039
611.742	14055
612.221	13877
612.7	13923
613.179	13945
613.658	13794
614.137	14089
614.616	14215
615.095	13929
615.574	14022
616.053	14134
616.532	14114
617.011	14214
617.491	14236
617.97	14187
618.449	14296
618.928	14410
619.408	14299
619.887	14390
620.367	14441
620.846	14639
621.326	14595
621.805	14885
622.285	14882
622.764	14884
623.244	14879
623.724	14879
624.203	14880
624.683	14631
625.163	14880
625.643	14881
626.123	14882
626.602	14877
627.082	14881
627.562	14880
628.042	14886
628.522	14882
629.002	14883
629.482	14881
629.963	14878
630.443	14882
630.923	14887
631.403	14876
631.883	14882
632.364	14882
632.844	14880
633.324	14884
633.805	14882
634.285	14879
634.766	14654
635.246	14677
635.727	14880
636.207	14877
636.688	14682
637.168	14668
637.649	14564
638.13	14489
638.611	14596
639.091	14650
639.572	14594
640.053	14512
640.534	14574
641.015	14543
641.496	14358
641.977	14599
642.458	14499
642.939	14525
643.42	14544
643.901	14569
644.382	14878
644.863	14878
645.345	14884
645.826	14879
646.307	14639
646.788	14889
647.27	14616
647.751	14880
648.233	14880
648.714	14584
649.196	14875
649.677	14881
650.159	14882
650.64	14666
651.122	14882
651.603	14677
652.085	14882
652.567	14879
653.049	14682
653.53	14882
654.012	14881
654.494	14673
654.976	14880
655.458	14883
655.94	14883
656.422	14880
656.904	14881
657.386	14614
657.868	14584
658.35	14489
658.833	14580
659.315	14610
659.797	14421
660.279	14437
660.762	14553
661.244	14478
661.726	14296
662.209	14250
662.691	14171
663.174	13897
663.656	14017
664.139	14084
664.621	14027
665.104	13935
665.587	14046
666.069	14070
666.552	14049
667.035	13900
667.517	13927
668	14001
668.483	13965
668.966	13831
669.449	13758
669.932	13784
670.415	13938
670.898	13841
671.381	13900
671.864	13955
672.347	13881
672.83	13940
673.313	13945
673.797	13885
674.28	14098
674.763	14114
675.247	14184
675.73	14180
676.213	14299
676.697	14327
677.18	14261
677.664	14244
678.147	14234
678.631	14301
679.114	14427
679.598	14453
680.082	14493
680.565	14411
681.049	14329
681.533	14372
682.017	14572
682.5	14552
682.984	14593
683.468	14526
683.952	14265
684.436	14471
684.92	14319
685.404	14411
685.888	14582
686.372	14557
686.856	14575
687.341	14667
687.825	14471
688.309	14468
688.793	14386
689.278	14195
689.762	14362
690.246	14340
690.731	14432
691.215	14473
691.7	14125
692.184	14263
692.669	14238
693.153	14348
693.638	14188
694.122	14128
694.607	14201
695.092	14037
695.577	14195
696.061	13984
696.546	13977
697.031	13941
697.516	14057
698.001	14076
698.486	14016
698.971	14128
699.456	13847
699.941	13826
700.426	13801
700.911	13887
701.396	13739
701.881	13791
702.366	13742
702.852	13755
703.337	13894
703.822	13846
704.308	13820
704.793	13845
705.278	13868
705.764	13919
706.249	13845
706.735	13829
707.22	13936
707.706	13663
708.191	13831
708.677	13842
709.163	13790
709.648	13909
710.134	14042
710.62	13871
711.106	13819
711.592	13976
712.077	13969
712.563	13740
713.049	13721
713.535	13904
714.021	13820
714.507	13768
714.993	13645
715.479	13808
715.966	13621
716.452	13617
716.938	13564
717.424	13198
717.91	13434
718.397	13352
718.883	13293
719.369	13350
719.856	13244
720.342	13399
720.829	13227
721.315	13274
721.802	13204
722.288	13305
722.775	12866
723.262	12534
723.748	13034
724.235	12959
724.722	13117
725.208	12888
725.695	12921
726.182	12888
726.669	12736
727.156	12758
727.643	12640
728.13	12655
728.617	12593
729.104	12629
729.591	12537
730.078	12606
730.565	12667
731.052	12490
731.539	12485
732.027	12372
732.514	12242
733.001	12333
733.488	12191
733.976	12126
734.463	12101
734.951	12109
735.438	12263
735.926	12114
736.413	12175
736.901	12129
737.388	12322
737.876	12272
738.364	12126
738.851	12099
739.339	12001
739.827	12052
740.314	11715
740.802	11824
741.29	11899
741.778	11817
742.266	11862
742.754	11899
743.242	11994
743.73	11745
744.218	11680
744.706	11557
745.194	11696
745.682	11633
746.17	11684
746.659	11747
747.147	11485
747.635	11550
748.123	11571
748.612	11459
749.1	11366
749.589	11448
750.077	11344
750.566	11253
751.054	11274
751.543	11260
752.031	11010
752.52	10975
753.008	10784
753.497	10770
753.986	10695
754.474	10632
754.963	10763
755.452	10621
755.941	10601
756.43	10601
756.919	10555
757.408	10480
757.896	10543
758.385	10581
758.875	10503
759.364	10413
759.853	10379
760.342	10247
760.831	10471
761.32	10318
761.809	10123
762.299	10152
762.788	10181
763.277	10155
763.767	9992
764.256	10017
764.745	9871
765.235	10034
765.724	9753
766.214	9847
766.703	9748
767.193	9644
767.683	9698
768.172	9560
768.662	9632
769.152	9551
769.641	9492
770.131	9254
770.621	9388
771.111	9323
771.601	9344
772.09	9264
772.58	9128
773.07	9122
773.56	9168
774.05	9018
774.54	8992
775.031	8944
775.521	8908
776.011	8919
776.501	9015
776.991	8874
777.482	8956
777.972	8715
778.462	8703
778.953	8800
779.443	8721
779.933	8660
780.424	8485
780.914	8516
781.405	8502
781.895	8410
782.386	8405
782.877	8383
783.367	8226
783.858	8175
784.349	8219
784.839	8190
785.33	8208
785.821	8106
786.312	8017
786.803	8056
787.293	8072
787.784	7926
788.275	7794
788.766	7723
789.257	7876
789.748	7743
790.24	7673
790.731	7743
791.222	7623
791.713	7604
792.204	7613
792.696	7384
793.187	7450
793.678	7375
794.169	7213
794.661	7332
795.152	7251
795.644	7223
796.135	7195
796.627	7231
797.118	7091
797.61	7059
798.101	6990
798.593	7081
799.085	6974
799.576	6969
800.068	6849
800.56	6835
801.052	6646
801.544	6617
802.035	6628
802.527	6547
803.019	6513
803.511	6486
804.003	6463
804.495	6521
804.987	6445
805.479	6280
805.971	6325
806.464	6309
806.956	6176
807.448	6176
807.94	6190
808.433	6150
808.925	6140
809.417	6078
809.91	6081
810.402	5924
810.894	5958
811.387	5970
811.879	5820
812.372	5820
812.865	5701
813.357	5699
813.85	5666
814.342	5650
814.835	5639
815.328	5628
815.821	5571
816.313	5576
816.806	5585
817.299	5520
817.792	5559
818.285	5516
818.778	5594
819.271	5583
819.764	5476
820.257	5463
820.75	5458
821.243	5448
821.736	5360
822.229	5419
822.722	5418
823.216	5526
