Data from lamp4bck_noballon_Subt4__20__113.txt Node

Date: Wed Apr 09 09:41:03 CEST 2025
User: fys-lab-0081
Spectrometer: S04999
Trigger mode: 0
Resolution mode: 1024 pixels
Integration Time (sec): 1.000000E-1
Scans to average: 1
Nonlinearity correction enabled: false
Boxcar width: 0
Baseline correction enabled: true
XAxis mode: Wavelengths
Number of Pixels in Spectrum: 1024
>>>>>Begin Spectral Data<<<<<
336.42	11
336.877	6
337.334	3
337.792	8
338.249	14
338.706	15
339.164	6
339.621	8
340.079	15
340.536	16
340.994	24
341.452	4
341.909	12
342.367	15
342.825	15
343.283	14
343.741	13
344.198	16
344.656	14
345.114	12
345.572	17
346.03	18
346.488	23
346.947	12
347.405	21
347.863	16
348.321	24
348.779	22
349.238	21
349.696	21
350.154	20
350.613	23
351.071	26
351.53	25
351.988	28
352.447	24
352.905	28
353.364	26
353.823	29
354.282	31
354.74	25
355.199	32
355.658	40
356.117	30
356.576	37
357.035	39
357.494	38
357.953	39
358.412	38
358.871	32
359.33	39
359.789	42
360.249	39
360.708	42
361.167	41
361.626	42
362.086	46
362.545	51
363.005	54
363.464	48
363.924	51
364.383	59
364.843	53
365.303	58
365.762	63
366.222	63
366.682	61
367.142	66
367.601	67
368.061	65
368.521	69
368.981	68
369.441	71
369.901	74
370.361	72
370.821	72
371.282	71
371.742	77
372.202	80
372.662	87
373.123	83
373.583	85
374.043	86
374.504	86
374.964	92
375.425	94
375.885	96
376.346	98
376.806	99
377.267	105
377.728	110
378.188	106
378.649	111
379.11	112
379.571	111
380.032	114
380.493	121
380.954	122
381.414	125
381.876	131
382.337	137
382.798	144
383.259	150
383.72	150
384.181	161
384.642	160
385.104	176
385.565	181
386.026	180
386.488	186
386.949	188
387.411	189
387.872	192
388.334	205
388.795	202
389.257	216
389.719	215
390.181	213
390.642	225
391.104	227
391.566	233
392.028	254
392.49	250
392.952	257
393.414	266
393.876	262
394.338	272
394.8	277
395.262	282
395.724	287
396.186	296
396.648	297
397.111	299
397.573	312
398.035	307
398.498	313
398.96	319
399.423	327
399.885	336
400.348	337
400.81	354
401.273	351
401.736	358
402.198	376
402.661	387
403.124	388
403.587	398
404.049	409
404.512	420
404.975	427
405.438	413
405.901	433
406.364	437
406.827	436
407.29	437
407.754	436
408.217	442
408.68	438
409.143	449
409.607	456
410.07	455
410.533	460
410.997	479
411.46	472
411.924	486
412.387	493
412.851	512
413.314	528
413.778	520
414.242	533
414.705	556
415.169	547
415.633	556
416.097	551
416.561	563
417.024	580
417.488	562
417.952	568
418.416	570
418.88	574
419.344	578
419.809	569
420.273	588
420.737	583
421.201	593
421.665	615
422.13	608
422.594	632
423.059	648
423.523	657
423.987	658
424.452	678
424.916	707
425.381	720
425.846	726
426.31	727
426.775	738
427.24	757
427.704	732
428.169	757
428.634	758
429.099	747
429.564	744
430.029	765
430.494	758
430.959	775
431.424	758
431.889	779
432.354	792
432.819	783
433.284	822
433.75	824
434.215	858
434.68	874
435.146	893
435.611	925
436.077	946
436.542	966
437.008	992
437.473	997
437.939	1014
438.404	1038
438.87	1053
439.336	1035
439.801	1023
440.267	1048
440.733	1067
441.199	1072
441.665	1070
442.131	1112
442.596	1083
443.062	1123
443.529	1166
443.995	1180
444.461	1195
444.927	1254
445.393	1258
445.859	1316
446.325	1333
446.792	1418
447.258	1419
447.724	1453
448.191	1510
448.657	1521
449.124	1574
449.59	1547
450.057	1629
450.523	1633
450.99	1672
451.457	1652
451.923	1683
452.39	1672
452.857	1721
453.324	1706
453.791	1744
454.257	1736
454.724	1761
455.191	1771
455.658	1766
456.125	1825
456.592	1792
457.059	1829
457.527	1864
457.994	1917
458.461	1914
458.928	1952
459.396	1957
459.863	2021
460.33	2010
460.798	2019
461.265	2026
461.732	2010
462.2	2056
462.668	2049
463.135	2095
463.603	2039
464.07	2080
464.538	2024
465.006	2097
465.474	2045
465.941	2056
466.409	2081
466.877	2038
467.345	2100
467.813	2077
468.281	2100
468.749	2121
469.217	2122
469.685	2134
470.153	2178
470.621	2177
471.09	2187
471.558	2283
472.026	2279
472.494	2353
472.963	2390
473.431	2458
473.9	2507
474.368	2556
474.837	2600
475.305	2636
475.774	2685
476.242	2744
476.711	2737
477.18	2813
477.648	2798
478.117	2821
478.586	2792
479.055	2798
479.524	2822
479.993	2827
480.462	2803
480.93	2820
481.399	2833
481.869	2845
482.338	2821
482.807	2858
483.276	2835
483.745	2852
484.214	2925
484.684	2968
485.153	2969
485.622	2997
486.092	3085
486.561	3010
487.031	3111
487.5	3195
487.97	3201
488.439	3279
488.909	3367
489.378	3486
489.848	3474
490.318	3576
490.787	3724
491.257	3766
491.727	3784
492.197	3883
492.667	3891
493.137	3938
493.607	3954
494.077	3998
494.547	3926
495.017	3921
495.487	3992
495.957	4064
496.427	3989
496.897	4003
497.368	4060
497.838	4011
498.308	4062
498.779	4099
499.249	4115
499.719	4157
500.19	4193
500.66	4203
501.131	4222
501.602	4320
502.072	4345
502.543	4390
503.014	4545
503.484	4534
503.955	4652
504.426	4813
504.897	4850
505.368	4941
505.838	4988
506.309	5114
506.78	5286
507.251	5383
507.722	5450
508.194	5603
508.665	5684
509.136	5638
509.607	5790
510.078	5881
510.549	5930
511.021	6080
511.492	6077
511.964	6160
512.435	6258
512.906	6202
513.378	6267
513.849	6372
514.321	6368
514.793	6436
515.264	6514
515.736	6570
516.208	6678
516.679	6711
517.151	6756
517.623	6804
518.095	6917
518.567	7001
519.038	7156
519.51	7120
519.982	7221
520.454	7315
520.927	7398
521.399	7470
521.871	7534
522.343	7572
522.815	7646
523.287	7620
523.76	7665
524.232	7792
524.704	7835
525.177	7704
525.649	7796
526.122	7916
526.594	7708
527.067	7861
527.539	7937
528.012	7896
528.484	7890
528.957	7944
529.43	7941
529.903	7914
530.375	8166
530.848	7960
531.321	8053
531.794	8057
532.267	8198
532.74	8069
533.213	8095
533.686	8223
534.159	8190
534.632	8364
535.105	8355
535.578	8499
536.051	8491
536.525	8513
536.998	8548
537.471	8738
537.945	8591
538.418	8710
538.891	8790
539.365	8884
539.838	8933
540.312	8931
540.786	9033
541.259	9005
541.733	9057
542.206	9026
542.68	8916
543.154	8923
543.628	8903
544.101	9141
544.575	9055
545.049	8819
545.523	8959
545.997	8905
546.471	9057
546.945	8988
547.419	9123
547.893	8776
548.367	8936
548.842	8860
549.316	8914
549.79	8944
550.264	8881
550.739	8961
551.213	8894
551.687	8937
552.162	9082
552.636	9033
553.111	8985
553.585	9146
554.06	9003
554.534	9235
555.009	9168
555.484	9285
555.958	9349
556.433	9399
556.908	9520
557.383	9398
557.858	9602
558.333	9636
558.807	9597
559.282	9660
559.757	9933
560.232	10000
560.708	9815
561.183	9751
561.658	9857
562.133	9839
562.608	9796
563.083	10059
563.559	9766
564.034	9828
564.509	9891
564.985	9920
565.46	9721
565.936	9829
566.411	9849
566.887	9787
567.362	9871
567.838	9834
568.313	9924
568.789	9850
569.265	9862
569.74	9902
570.216	9792
570.692	9986
571.168	10027
571.644	9969
572.12	9945
572.596	9998
573.071	10037
573.547	10278
574.024	10264
574.5	10358
574.976	10442
575.452	10656
575.928	10735
576.404	10812
576.881	11160
577.357	10964
577.833	10978
578.31	11231
578.786	11395
579.262	11617
579.739	11491
580.215	11750
580.692	11663
581.169	11571
581.645	11579
582.122	11879
582.598	11825
583.075	11816
583.552	11933
584.029	11977
584.506	11904
584.982	11804
585.459	11976
585.936	11850
586.413	12020
586.89	12202
587.367	12064
587.844	12257
588.321	12170
588.799	12172
589.276	11981
589.753	12089
590.23	12167
590.707	12212
591.185	12235
591.662	12168
592.139	12281
592.617	12450
593.094	12428
593.572	12469
594.049	12545
594.527	12627
595.004	12693
595.482	12967
595.96	12826
596.437	12765
596.915	13104
597.393	13062
597.871	13370
598.349	13185
598.826	13374
599.304	13370
599.782	13659
600.26	13571
600.738	13757
601.216	13618
601.694	13728
602.173	13883
602.651	13984
603.129	13795
603.607	13869
604.085	13943
604.564	13942
605.042	13874
605.52	13720
605.999	14053
606.477	13877
606.956	13974
607.434	14031.5
607.913	14089
608.391	14049
608.87	14015
609.348	13902
609.827	13957
610.306	13953
610.785	13947
611.263	14037
611.742	14038
612.221	13866
612.7	13931
613.179	13942
613.658	13789
614.137	14078
614.616	14218
615.095	13921
615.574	14009
616.053	14120
616.532	14114
617.011	14204
617.491	14231
617.97	14174
618.449	14304
618.928	14405
619.408	14310
619.887	14377
620.367	14431
620.846	14622
621.326	14599
621.805	14885
622.285	14882
622.764	14884
623.244	14879
623.724	14879
624.203	14880
624.683	14615
625.163	14880
625.643	14881
626.123	14882
626.602	14877
627.082	14881
627.562	14880
628.042	14886
628.522	14882
629.002	14883
629.482	14881
629.963	14878
630.443	14882
630.923	14887
631.403	14876
631.883	14882
632.364	14882
632.844	14880
633.324	14884
633.805	14882
634.285	14879
634.766	14664
635.246	14677
635.727	14880
636.207	14877
636.688	14877
637.168	14664
637.649	14555
638.13	14479
638.611	14576
639.091	14642
639.572	14581
640.053	14507
640.534	14591
641.015	14542
641.496	14366
641.977	14598
642.458	14493
642.939	14530
643.42	14547
643.901	14580
644.382	14878
644.863	14878
645.345	14884
645.826	14879
646.307	14649
646.788	14889
647.27	14605
647.751	14880
648.233	14880
648.714	14575
649.196	14875
649.677	14881
650.159	14882
650.64	14663
651.122	14882
651.603	14685
652.085	14882
652.567	14879
653.049	14679
653.53	14882
654.012	14881
654.494	14668
654.976	14880
655.458	14883
655.94	14883
656.422	14880
656.904	14881
657.386	14610
657.868	14586
658.35	14499
658.833	14582
659.315	14604
659.797	14421
660.279	14441
660.762	14561
661.244	14456
661.726	14298
662.209	14242
662.691	14169
663.174	13903
663.656	14011
664.139	14075
664.621	14015
665.104	13936
665.587	14053
666.069	14065
666.552	14052
667.035	13900
667.517	13931
668	14007
668.483	13955
668.966	13844
669.449	13756
669.932	13783
670.415	13936
670.898	13834
671.381	13900
671.864	13960
672.347	13881
672.83	13932
673.313	13954
673.797	13888
674.28	14085
674.763	14111
675.247	14179
675.73	14181
676.213	14294
676.697	14327
677.18	14265
677.664	14254
678.147	14228
678.631	14286
679.114	14439
679.598	14455
680.082	14506
680.565	14405
681.049	14346
681.533	14381
682.017	14556
682.5	14568
682.984	14607
683.468	14530
683.952	14267
684.436	14473
684.92	14314
685.404	14419
685.888	14574
686.372	14539
686.856	14578
687.341	14681
687.825	14485
688.309	14472
688.793	14391
689.278	14201
689.762	14355
690.246	14332
690.731	14426
691.215	14477
691.7	14133
692.184	14262
692.669	14229
693.153	14348
693.638	14192
694.122	14136
694.607	14190
695.092	14047
695.577	14203
696.061	13991
696.546	13962
697.031	13928
697.516	14067
698.001	14072
698.486	14017
698.971	14144
699.456	13860
699.941	13826
700.426	13804
700.911	13865
701.396	13739
701.881	13790
702.366	13759
702.852	13770
703.337	13879
703.822	13858
704.308	13818
704.793	13857
705.278	13878
705.764	13928
706.249	13843
706.735	13847
707.22	13930
707.706	13684
708.191	13830
708.677	13844
709.163	13798
709.648	13899
710.134	14034
710.62	13860
711.106	13833
711.592	13983
712.077	13964
712.563	13735
713.049	13718
713.535	13913
714.021	13822
714.507	13775
714.993	13647
715.479	13811
715.966	13621
716.452	13609
716.938	13579
717.424	13183
717.91	13439
718.397	13361
718.883	13306
719.369	13363
719.856	13235
720.342	13382
720.829	13238
721.315	13277
721.802	13200
722.288	13323
722.775	12878
723.262	12529
723.748	13042
724.235	12960
724.722	13117
725.208	12890
725.695	12915
726.182	12887
726.669	12731
727.156	12761
727.643	12637
728.13	12649
728.617	12590
729.104	12623
729.591	12542
730.078	12622
730.565	12673
731.052	12482
731.539	12487
732.027	12379
732.514	12255
733.001	12338
733.488	12194
733.976	12137
734.463	12107
734.951	12110
735.438	12267
735.926	12125
736.413	12191
736.901	12138
737.388	12323
737.876	12274
738.364	12133
738.851	12102
739.339	12002
739.827	12061
740.314	11709
740.802	11813
741.29	11921
741.778	11822
742.266	11858
742.754	11904
743.242	11986
743.73	11750
744.218	11690
744.706	11549
745.194	11691
745.682	11654
746.17	11688
746.659	11749
747.147	11473
747.635	11564
748.123	11562
748.612	11462
749.1	11375
749.589	11460
750.077	11354
750.566	11258
751.054	11280
751.543	11258
752.031	10994
752.52	11001
753.008	10796
753.497	10781
753.986	10701
754.474	10647
754.963	10772
755.452	10628
755.941	10607
756.43	10606
756.919	10564
757.408	10496
757.896	10552
758.385	10601
758.875	10512
759.364	10426
759.853	10390
760.342	10256
760.831	10468
761.32	10318
761.809	10131
762.299	10161
762.788	10181
763.277	10158
763.767	10018
764.256	10009
764.745	9895
765.235	10038
765.724	9758
766.214	9836
766.703	9771
767.193	9643
767.683	9706
768.172	9567
768.662	9649
769.152	9549
769.641	9497
770.131	9254
770.621	9384
771.111	9322
771.601	9340
772.09	9254
772.58	9128
773.07	9125
773.56	9177
774.05	9012
774.54	8991
775.031	8948
775.521	8914
776.011	8922
776.501	9008
776.991	8870
777.482	8966
777.972	8713
778.462	8703
778.953	8796
779.443	8737
779.933	8658
780.424	8502
780.914	8520
781.405	8502
781.895	8425
782.386	8417
782.877	8385
783.367	8237
783.858	8173
784.349	8231
784.839	8201
785.33	8211
785.821	8126
786.312	8026
786.803	8072
787.293	8075
787.784	7930
788.275	7794
788.766	7727
789.257	7873
789.748	7740
790.24	7677
790.731	7749
791.222	7638
791.713	7593
792.204	7609
792.696	7391
793.187	7454
793.678	7361
794.169	7200
794.661	7334
795.152	7266
795.644	7224
796.135	7188
796.627	7225
797.118	7101
797.61	7063
798.101	6997
798.593	7084
799.085	6976
799.576	6984
800.068	6864
800.56	6838
801.052	6652
801.544	6616
802.035	6628
802.527	6547
803.019	6514
803.511	6479
804.003	6469
804.495	6523
804.987	6449
805.479	6280
805.971	6320
806.464	6314
806.956	6167
807.448	6170
807.94	6194
808.433	6151
808.925	6148
809.417	6086
809.91	6086
810.402	5929
810.894	5959
811.387	5969
811.879	5822
812.372	5821
812.865	5708
813.357	5716
813.85	5659
814.342	5640
814.835	5640
815.328	5648
815.821	5570
816.313	5588
816.806	5587
817.299	5525
817.792	5568
818.285	5519
818.778	5590
819.271	5582
819.764	5481
820.257	5474
820.75	5465
821.243	5449
821.736	5369
822.229	5414
822.722	5432
823.216	5526
