Data from lamp4bck_noballon_Subt4__4__97.txt Node

Date: Wed Apr 09 09:41:01 CEST 2025
User: fys-lab-0081
Spectrometer: S04999
Trigger mode: 0
Resolution mode: 1024 pixels
Integration Time (sec): 1.000000E-1
Scans to average: 1
Nonlinearity correction enabled: false
Boxcar width: 0
Baseline correction enabled: true
XAxis mode: Wavelengths
Number of Pixels in Spectrum: 1024
>>>>>Begin Spectral Data<<<<<
336.42	10
336.877	11
337.334	7
337.792	8
338.249	14
338.706	10
339.164	6
339.621	8
340.079	10
340.536	9
340.994	16
341.452	9
341.909	11
342.367	12
342.825	15
343.283	15
343.741	15
344.198	16
344.656	13
345.114	16
345.572	20
346.03	14
346.488	21
346.947	12
347.405	21
347.863	19
348.321	23
348.779	18
349.238	21
349.696	25
350.154	20
350.613	23
351.071	21
351.53	26
351.988	26
352.447	27
352.905	22
353.364	25
353.823	29
354.282	29
354.74	27
355.199	33
355.658	36
356.117	36
356.576	39
357.035	34
357.494	35
357.953	37
358.412	46
358.871	32
359.33	34
359.789	43
360.249	37
360.708	48
361.167	47
361.626	46
362.086	42
362.545	51
363.005	59
363.464	48
363.924	54
364.383	56
364.843	53
365.303	60
365.762	61
366.222	57
366.682	68
367.142	68
367.601	69
368.061	66
368.521	71
368.981	71
369.441	73
369.901	74
370.361	68
370.821	69
371.282	75
371.742	73
372.202	81
372.662	85
373.123	87
373.583	86
374.043	89
374.504	88
374.964	92
375.425	94
375.885	100
376.346	97
376.806	99
377.267	107
377.728	109
378.188	107
378.649	109
379.11	111
379.571	110
380.032	118
380.493	121
380.954	125
381.414	127
381.876	133
382.337	136
382.798	143
383.259	150
383.72	152
384.181	160
384.642	159
385.104	176
385.565	179
386.026	178
386.488	183
386.949	185
387.411	192
387.872	195
388.334	205
388.795	204
389.257	209
389.719	211
390.181	214
390.642	224
391.104	225
391.566	228
392.028	251
392.49	248
392.952	258
393.414	261
393.876	265
394.338	272
394.8	274
395.262	283
395.724	287
396.186	293
396.648	296
397.111	300
397.573	307
398.035	308
398.498	316
398.96	314
399.423	326
399.885	340
400.348	341
400.81	357
401.273	355
401.736	356
402.198	371
402.661	388
403.124	391
403.587	394
404.049	407
404.512	420
404.975	429
405.438	416
405.901	431
406.364	439
406.827	436
407.29	443
407.754	440
408.217	445
408.68	437
409.143	447
409.607	459
410.07	456
410.533	461
410.997	478
411.46	476
411.924	486
412.387	493
412.851	514
413.314	533
413.778	523
414.242	535
414.705	558
415.169	549
415.633	556
416.097	556
416.561	565
417.024	582
417.488	563
417.952	570
418.416	572
418.88	571
419.344	576
419.809	577
420.273	586
420.737	583
421.201	594
421.665	617
422.13	606
422.594	634
423.059	644
423.523	655
423.987	665
424.452	683
424.916	705
425.381	721
425.846	726
426.31	728
426.775	737
427.24	757
427.704	735
428.169	760
428.634	758
429.099	751
429.564	752
430.029	769
430.494	759
430.959	779
431.424	758
431.889	779
432.354	791
432.819	787
433.284	820
433.75	828
434.215	866
434.68	872
435.146	891
435.611	923
436.077	953
436.542	964
437.008	994
437.473	998
437.939	1022
438.404	1042
438.87	1058
439.336	1034
439.801	1026
440.267	1047
440.733	1070
441.199	1074
441.665	1077
442.131	1116
442.596	1090
443.062	1123
443.529	1163
443.995	1181
444.461	1196
444.927	1253
445.393	1262
445.859	1325
446.325	1336
446.792	1415
447.258	1417
447.724	1457
448.191	1515
448.657	1528
449.124	1572
449.59	1549
450.057	1638
450.523	1641
450.99	1671
451.457	1660
451.923	1688
452.39	1687
452.857	1717
453.324	1708
453.791	1750
454.257	1746
454.724	1766
455.191	1780
455.658	1770
456.125	1828
456.592	1791
457.059	1832
457.527	1865
457.994	1918
458.461	1920
458.928	1958
459.396	1951
459.863	2024
460.33	2017
460.798	2020
461.265	2028
461.732	2011
462.2	2070
462.668	2050
463.135	2101
463.603	2043
464.07	2084
464.538	2030
465.006	2103
465.474	2040
465.941	2058
466.409	2086
466.877	2042
467.345	2105
467.813	2085
468.281	2103
468.749	2124
469.217	2124
469.685	2140
470.153	2185
470.621	2179
471.09	2192
471.558	2282
472.026	2284
472.494	2355
472.963	2394
473.431	2465
473.9	2514
474.368	2563
474.837	2601
475.305	2638
475.774	2692
476.242	2748
476.711	2745
477.18	2814
477.648	2807
478.117	2837
478.586	2801
479.055	2795
479.524	2823
479.993	2828
480.462	2815
480.93	2826
481.399	2833
481.869	2853
482.338	2834
482.807	2872
483.276	2849
483.745	2853
484.214	2934
484.684	2973
485.153	2975
485.622	2991
486.092	3088
486.561	3017
487.031	3126
487.5	3201
487.97	3209
488.439	3288
488.909	3378
489.378	3495
489.848	3486
490.318	3585
490.787	3729
491.257	3766
491.727	3792
492.197	3894
492.667	3903
493.137	3939
493.607	3967
494.077	3993
494.547	3937
495.017	3932
495.487	4006
495.957	4074
496.427	3999
496.897	4016
497.368	4061
497.838	4013
498.308	4064
498.779	4101
499.249	4118
499.719	4156
500.19	4207
500.66	4219
501.131	4229
501.602	4334
502.072	4344
502.543	4390
503.014	4548
503.484	4544
503.955	4668
504.426	4826
504.897	4854
505.368	4950
505.838	4998
506.309	5123
506.78	5298
507.251	5390
507.722	5462
508.194	5620
508.665	5689
509.136	5641
509.607	5794
510.078	5900
510.549	5935
511.021	6091
511.492	6094
511.964	6174
512.435	6260
512.906	6209
513.378	6291
513.849	6386
514.321	6372
514.793	6463
515.264	6527
515.736	6578
516.208	6671
516.679	6741
517.151	6775
517.623	6828
518.095	6931
518.567	7027
519.038	7160
519.51	7125
519.982	7233
520.454	7333
520.927	7421
521.399	7484
521.871	7530
522.343	7593
522.815	7663
523.287	7646
523.76	7682
524.232	7809
524.704	7856
525.177	7705
525.649	7807
526.122	7932
526.594	7724
527.067	7874
527.539	7963
528.012	7907
528.484	7919
528.957	7952
529.43	7956
529.903	7938
530.375	8171
530.848	7976
531.321	8064
531.794	8075
532.267	8209
532.74	8088
533.213	8114
533.686	8228
534.159	8210
534.632	8374
535.105	8374
535.578	8524
536.051	8501
536.525	8528
536.998	8571
537.471	8755
537.945	8607
538.418	8738
538.891	8793
539.365	8895
539.838	8947
540.312	8943
540.786	9056
541.259	9020
541.733	9068
542.206	9037
542.68	8926
543.154	8928
543.628	8915
544.101	9138
544.575	9073
545.049	8847
545.523	8979
545.997	8941
546.471	9061
546.945	9001
547.419	9144
547.893	8791
548.367	8956
548.842	8883
549.316	8927
549.79	8954
550.264	8887
550.739	8976
551.213	8921
551.687	8950
552.162	9081
552.636	9048
553.111	9014
553.585	9154
554.06	9020
554.534	9246
555.009	9189
555.484	9296
555.958	9360
556.433	9414
556.908	9536
557.383	9403
557.858	9614
558.333	9645
558.807	9614
559.282	9687
559.757	9942
560.232	9998
560.708	9832
561.183	9776
561.658	9868
562.133	9858
562.608	9822
563.083	10081
563.559	9789
564.034	9838
564.509	9907
564.985	9922
565.46	9734
565.936	9841
566.411	9869
566.887	9800
567.362	9898
567.838	9821
568.313	9933
568.789	9859
569.265	9881
569.74	9904
570.216	9804
570.692	10001
571.168	10036
571.644	9991
572.12	9956
572.596	10021
573.071	10053
573.547	10292
574.024	10305
574.5	10367
574.976	10465
575.452	10673
575.928	10759
576.404	10833
576.881	11177
577.357	10974
577.833	10993
578.31	11260
578.786	11405
579.262	11627
579.739	11499
580.215	11748
580.692	11682
581.169	11576
581.645	11611
582.122	11903
582.598	11856
583.075	11843
583.552	11950
584.029	11986
584.506	11938
584.982	11819
585.459	12001
585.936	11879
586.413	12015
586.89	12216
587.367	12094
587.844	12258
588.321	12193
588.799	12195
589.276	12001
589.753	12105
590.23	12183
590.707	12240
591.185	12259
591.662	12193
592.139	12293
592.617	12466
593.094	12463
593.572	12500
594.049	12561
594.527	12644
595.004	12704
595.482	12986
595.96	12836
596.437	12781
596.915	13128
597.393	13072
597.871	13401
598.349	13196
598.826	13386
599.304	13392
599.782	13686
600.26	13574
600.738	13781
601.216	13627
601.694	13746
602.173	13908
602.651	14001
603.129	13808
603.607	13908
604.085	13960
604.564	13945
605.042	13904
605.52	13747
605.999	14066
606.477	13914
606.956	14007
607.434	14060
607.913	14113
608.391	14069
608.87	14026
609.348	13920
609.827	13970
610.306	13970
610.785	13959
611.263	14047
611.742	14059
612.221	13896
612.7	13968
613.179	13976
613.658	13818
614.137	14121
614.616	14221
615.095	13943
615.574	14050
616.053	14154
616.532	14130
617.011	14221
617.491	14265
617.97	14196
618.449	14310
618.928	14435
619.408	14324
619.887	14403
620.367	14469
620.846	14638
621.326	14602
621.805	14885
622.285	14882
622.764	14884
623.244	14879
623.724	14879
624.203	14880
624.683	14645
625.163	14880
625.643	14881
626.123	14882
626.602	14877
627.082	14881
627.562	14880
628.042	14886
628.522	14882
629.002	14883
629.482	14881
629.963	14878
630.443	14882
630.923	14887
631.403	14876
631.883	14882
632.364	14882
632.844	14880
633.324	14884
633.805	14882
634.285	14879
634.766	14881
635.246	14881
635.727	14880
636.207	14877
636.688	14877
637.168	14686
637.649	14580
638.13	14493
638.611	14602
639.091	14661
639.572	14610
640.053	14526
640.534	14608
641.015	14562
641.496	14376
641.977	14614
642.458	14525
642.939	14562
643.42	14572
643.901	14604
644.382	14878
644.863	14878
645.345	14884
645.826	14879
646.307	14662
646.788	14889
647.27	14642
647.751	14880
648.233	14880
648.714	14605
649.196	14875
649.677	14881
650.159	14882
650.64	14683
651.122	14882
651.603	14888
652.085	14882
652.567	14879
653.049	14882
653.53	14882
654.012	14881
654.494	14882
654.976	14880
655.458	14883
655.94	14883
656.422	14880
656.904	14881
657.386	14621
657.868	14602
658.35	14512
658.833	14605
659.315	14618
659.797	14444
660.279	14461
660.762	14581
661.244	14483
661.726	14312
662.209	14276
662.691	14183
663.174	13906
663.656	14028
664.139	14097
664.621	14044
665.104	13948
665.587	14066
666.069	14094
666.552	14065
667.035	13922
667.517	13941
668	14021
668.483	13972
668.966	13853
669.449	13769
669.932	13795
670.415	13955
670.898	13867
671.381	13919
671.864	13994
672.347	13914
672.83	13930
673.313	13975
673.797	13917
674.28	14118
674.763	14114
675.247	14195
675.73	14193
676.213	14315
676.697	14358
677.18	14282
677.664	14263
678.147	14265
678.631	14312
679.114	14447
679.598	14474
680.082	14520
680.565	14437
681.049	14373
681.533	14397
682.017	14590
682.5	14580
682.984	14632
683.468	14566
683.952	14288
684.436	14485
684.92	14345
685.404	14444
685.888	14602
686.372	14567
686.856	14592
687.341	14698
687.825	14492
688.309	14496
688.793	14401
689.278	14214
689.762	14375
690.246	14364
690.731	14447
691.215	14501
691.7	14138
692.184	14280
692.669	14257
693.153	14368
693.638	14210
694.122	14174
694.607	14216
695.092	14066
695.577	14225
696.061	14014
696.546	13981
697.031	13948
697.516	14080
698.001	14111
698.486	14040
698.971	14159
699.456	13877
699.941	13855
700.426	13818
700.911	13894
701.396	13762
701.881	13822
702.366	13781
702.852	13793
703.337	13914
703.822	13890
704.308	13834
704.793	13880
705.278	13893
705.764	13940
706.249	13865
706.735	13852
707.22	13953
707.706	13698
708.191	13855
708.677	13874
709.163	13816
709.648	13910
710.134	14066
710.62	13883
711.106	13856
711.592	13996
712.077	13993
712.563	13753
713.049	13750
713.535	13932
714.021	13838
714.507	13792
714.993	13672
715.479	13835
715.966	13652
716.452	13633
716.938	13586
717.424	13197
717.91	13459
718.397	13375
718.883	13321
719.369	13379
719.856	13272
720.342	13410
720.829	13261
721.315	13301
721.802	13225
722.288	13341
722.775	12899
723.262	12558
723.748	13063
724.235	12994
724.722	13148
725.208	12925
725.695	12938
726.182	12915
726.669	12740
727.156	12793
727.643	12661
728.13	12674
728.617	12619
729.104	12647
729.591	12550
730.078	12635
730.565	12688
731.052	12502
731.539	12493
732.027	12417
732.514	12268
733.001	12370
733.488	12223
733.976	12153
734.463	12131
734.951	12132
735.438	12288
735.926	12137
736.413	12184
736.901	12156
737.388	12338
737.876	12303
738.364	12166
738.851	12130
739.339	12026
739.827	12076
740.314	11733
740.802	11837
741.29	11927
741.778	11848
742.266	11875
742.754	11939
743.242	12012
743.73	11771
744.218	11710
744.706	11571
745.194	11714
745.682	11661
746.17	11714
746.659	11768
747.147	11499
747.635	11586
748.123	11595
748.612	11494
749.1	11397
749.589	11467
750.077	11385
750.566	11277
751.054	11287
751.543	11269
752.031	11027
752.52	10991
753.008	10809
753.497	10789
753.986	10719
754.474	10689
754.963	10787
755.452	10649
755.941	10627
756.43	10633
756.919	10590
757.408	10523
757.896	10552
758.385	10607
758.875	10519
759.364	10446
759.853	10415
760.342	10278
760.831	10486
761.32	10340
761.809	10148
762.299	10178
762.788	10205
763.277	10177
763.767	10017
764.256	10029
764.745	9891
765.235	10058
765.724	9775
766.214	9862
766.703	9784
767.193	9656
767.683	9722
768.172	9579
768.662	9665
769.152	9570
769.641	9514
770.131	9272
770.621	9408
771.111	9332
771.601	9359
772.09	9283
772.58	9159
773.07	9142
773.56	9193
774.05	9043
774.54	9007
775.031	8971
775.521	8937
776.011	8939
776.501	9039
776.991	8887
777.482	8968
777.972	8731
778.462	8721
778.953	8814
779.443	8752
779.933	8673
780.424	8514
780.914	8535
781.405	8528
781.895	8441
782.386	8420
782.877	8391
783.367	8255
783.858	8219
784.349	8237
784.839	8213
785.33	8222
785.821	8135
786.312	8043
786.803	8091
787.293	8083
787.784	7941
788.275	7820
788.766	7749
789.257	7896
789.748	7751
790.24	7706
790.731	7763
791.222	7649
791.713	7611
792.204	7624
792.696	7403
793.187	7460
793.678	7387
794.169	7213
794.661	7347
795.152	7271
795.644	7250
796.135	7204
796.627	7242
797.118	7108
797.61	7074
798.101	7008
798.593	7089
799.085	6989
799.576	6985
800.068	6880
800.56	6852
801.052	6681
801.544	6631
802.035	6648
802.527	6571
803.019	6518
803.511	6491
804.003	6482
804.495	6537
804.987	6449
805.479	6307
805.971	6331
806.464	6315
806.956	6182
807.448	6192
807.94	6198
808.433	6156
808.925	6148
809.417	6101
809.91	6098
810.402	5938
810.894	5973
811.387	5975
811.879	5842
812.372	5845
812.865	5713
813.357	5711
813.85	5679
814.342	5646
814.835	5651
815.328	5650
815.821	5586
816.313	5593
816.806	5603
817.299	5536
817.792	5580
818.285	5528
818.778	5601
819.271	5603
819.764	5499
820.257	5481
820.75	5467
821.243	5462
821.736	5396
822.229	5445
822.722	5443
823.216	5542
