Data from lamp4bck_noballon_Subt4__7__100.txt Node

Date: Wed Apr 09 09:41:02 CEST 2025
User: fys-lab-0081
Spectrometer: S04999
Trigger mode: 0
Resolution mode: 1024 pixels
Integration Time (sec): 1.000000E-1
Scans to average: 1
Nonlinearity correction enabled: false
Boxcar width: 0
Baseline correction enabled: true
XAxis mode: Wavelengths
Number of Pixels in Spectrum: 1024
>>>>>Begin Spectral Data<<<<<
336.42	7
336.877	7
337.334	11
337.792	5
338.249	13
338.706	13
339.164	7
339.621	7
340.079	15
340.536	10
340.994	17
341.452	8
341.909	14
342.367	8
342.825	14
343.283	17
343.741	13
344.198	16
344.656	11
345.114	15
345.572	18
346.03	17
346.488	21
346.947	14
347.405	16
347.863	17
348.321	27
348.779	20
349.238	21
349.696	21
350.154	20
350.613	25
351.071	24
351.53	26
351.988	27
352.447	25
352.905	29
353.364	22
353.823	31
354.282	31
354.74	28
355.199	31
355.658	34
356.117	34
356.576	41
357.035	38
357.494	34
357.953	42
358.412	43
358.871	34
359.33	37
359.789	43
360.249	42
360.708	47
361.167	42
361.626	46
362.086	45
362.545	48
363.005	51
363.464	48
363.924	52
364.383	60
364.843	58
365.303	55
365.762	58
366.222	62
366.682	64
367.142	67
367.601	64
368.061	63
368.521	70
368.981	68
369.441	71
369.901	70
370.361	72
370.821	69
371.282	76
371.742	80
372.202	78
372.662	88
373.123	83
373.583	87
374.043	87
374.504	85
374.964	91
375.425	91
375.885	96
376.346	102
376.806	103
377.267	105
377.728	111
378.188	110
378.649	116
379.11	113
379.571	116
380.032	115
380.493	115
380.954	129
381.414	128
381.876	134
382.337	136
382.798	141
383.259	151
383.72	151
384.181	156
384.642	159
385.104	173
385.565	180
386.026	181
386.488	182
386.949	183
387.411	190
387.872	194
388.334	203
388.795	201
389.257	209
389.719	215
390.181	216
390.642	226
391.104	227
391.566	236
392.028	250
392.49	248
392.952	255
393.414	261
393.876	256
394.338	273
394.8	277
395.262	283
395.724	290
396.186	292
396.648	295
397.111	300
397.573	307
398.035	309
398.498	313
398.96	320
399.423	326
399.885	337
400.348	340
400.81	360
401.273	351
401.736	359
402.198	376
402.661	387
403.124	389
403.587	396
404.049	408
404.512	420
404.975	428
405.438	420
405.901	426
406.364	433
406.827	440
407.29	439
407.754	438
408.217	437
408.68	437
409.143	449
409.607	460
410.07	457
410.533	466
410.997	474
411.46	475
411.924	486
412.387	492
412.851	510
413.314	527
413.778	523
414.242	533
414.705	555
415.169	551
415.633	553
416.097	555
416.561	560
417.024	580
417.488	559
417.952	570
418.416	572
418.88	572
419.344	577
419.809	574
420.273	591
420.737	581
421.201	592
421.665	614
422.13	605
422.594	630
423.059	648
423.523	662
423.987	659
424.452	682
424.916	703
425.381	721
425.846	728
426.31	726
426.775	738
427.24	757
427.704	733
428.169	757
428.634	756
429.099	745
429.564	750
430.029	766
430.494	760
430.959	776
431.424	759
431.889	779
432.354	793
432.819	779
433.284	822
433.75	826
434.215	857
434.68	868
435.146	892
435.611	924
436.077	946
436.542	960
437.008	989
437.473	1001
437.939	1019
438.404	1037
438.87	1055
439.336	1032
439.801	1029
440.267	1051
440.733	1069
441.199	1077
441.665	1072
442.131	1107
442.596	1094
443.062	1125
443.529	1163
443.995	1183
444.461	1198
444.927	1254
445.393	1262
445.859	1318
446.325	1338
446.792	1423
447.258	1416
447.724	1455
448.191	1511
448.657	1523
449.124	1573
449.59	1547
450.057	1633
450.523	1637
450.99	1670
451.457	1654
451.923	1692
452.39	1682
452.857	1719
453.324	1711
453.791	1748
454.257	1745
454.724	1763
455.191	1771
455.658	1772
456.125	1828
456.592	1792
457.059	1835
457.527	1867
457.994	1923
458.461	1917
458.928	1954
459.396	1950
459.863	2025
460.33	2014
460.798	2016
461.265	2028
461.732	2019
462.2	2060
462.668	2049
463.135	2096
463.603	2036
464.07	2095
464.538	2025
465.006	2100
465.474	2044
465.941	2056
466.409	2083
466.877	2038
467.345	2095
467.813	2084
468.281	2109
468.749	2116
469.217	2122
469.685	2144
470.153	2188
470.621	2180
471.09	2186
471.558	2279
472.026	2286
472.494	2356
472.963	2387
473.431	2460
473.9	2503
474.368	2561
474.837	2598
475.305	2631
475.774	2686
476.242	2745
476.711	2739
477.18	2809
477.648	2792
478.117	2824
478.586	2795
479.055	2797
479.524	2830
479.993	2825
480.462	2805
480.93	2822
481.399	2839
481.869	2847
482.338	2824
482.807	2868
483.276	2839
483.745	2863
484.214	2929
484.684	2975
485.153	2974
485.622	2996
486.092	3094
486.561	3013
487.031	3120
487.5	3195
487.97	3208
488.439	3284
488.909	3366
489.378	3486
489.848	3479
490.318	3578
490.787	3721
491.257	3767
491.727	3786
492.197	3889
492.667	3894
493.137	3941
493.607	3962
494.077	3991
494.547	3935
495.017	3927
495.487	4001
495.957	4070
496.427	3991
496.897	4008
497.368	4063
497.838	4015
498.308	4066
498.779	4102
499.249	4111
499.719	4156
500.19	4195
500.66	4199
501.131	4223
501.602	4334
502.072	4346
502.543	4369
503.014	4548
503.484	4539
503.955	4656
504.426	4821
504.897	4857
505.368	4940
505.838	4987
506.309	5118
506.78	5301
507.251	5391
507.722	5451
508.194	5620
508.665	5689
509.136	5625
509.607	5794
510.078	5897
510.549	5940
511.021	6077
511.492	6079
511.964	6166
512.435	6256
512.906	6205
513.378	6269
513.849	6385
514.321	6373
514.793	6455
515.264	6526
515.736	6580
516.208	6680
516.679	6732
517.151	6773
517.623	6805
518.095	6917
518.567	7013
519.038	7145
519.51	7132
519.982	7230
520.454	7318
520.927	7402
521.399	7482
521.871	7526
522.343	7565
522.815	7655
523.287	7635
523.76	7667
524.232	7801
524.704	7850
525.177	7713
525.649	7812
526.122	7922
526.594	7716
527.067	7863
527.539	7955
528.012	7900
528.484	7899
528.957	7940
529.43	7951
529.903	7931
530.375	8168
530.848	7966
531.321	8071
531.794	8070
532.267	8202
532.74	8071
533.213	8093
533.686	8229
534.159	8193
534.632	8373
535.105	8365
535.578	8503
536.051	8492
536.525	8511
536.998	8560
537.471	8744
537.945	8595
538.418	8719
538.891	8786
539.365	8885
539.838	8931
540.312	8935
540.786	9042
541.259	9011
541.733	9065
542.206	9022
542.68	8918
543.154	8919
543.628	8919
544.101	9127
544.575	9070
545.049	8847
545.523	8964
545.997	8910
546.471	9057
546.945	8999
547.419	9140
547.893	8780
548.367	8952
548.842	8871
549.316	8927
549.79	8941
550.264	8876
550.739	8960
551.213	8917
551.687	8944
552.162	9088
552.636	9043
553.111	8997
553.585	9150
554.06	9013
554.534	9236
555.009	9178
555.484	9292
555.958	9364
556.433	9410
556.908	9531
557.383	9388
557.858	9603
558.333	9642
558.807	9611
559.282	9661
559.757	9931
560.232	9990
560.708	9825
561.183	9748
561.658	9851
562.133	9839
562.608	9818
563.083	10058
563.559	9769
564.034	9837
564.509	9912
564.985	9925
565.46	9716
565.936	9832
566.411	9853
566.887	9796
567.362	9898
567.838	9827
568.313	9930
568.789	9869
569.265	9866
569.74	9894
570.216	9806
570.692	10007
571.168	10034
571.644	9975
572.12	9944
572.596	10012
573.071	10035
573.547	10274
574.024	10289
574.5	10351
574.976	10456
575.452	10661
575.928	10748
576.404	10821
576.881	11162
577.357	10965
577.833	10985
578.31	11229
578.786	11400
579.262	11620
579.739	11496
580.215	11758
580.692	11660
581.169	11566
581.645	11592
582.122	11894
582.598	11829
583.075	11829
583.552	11949
584.029	11979
584.506	11919
584.982	11802
585.459	11983
585.936	11867
586.413	12014
586.89	12204
587.367	12077
587.844	12252
588.321	12175
588.799	12169
589.276	11998
589.753	12097
590.23	12165
590.707	12234
591.185	12248
591.662	12187
592.139	12267
592.617	12451
593.094	12449
593.572	12477
594.049	12556
594.527	12635
595.004	12707
595.482	12986
595.96	12821
596.437	12780
596.915	13103
597.393	13062
597.871	13380
598.349	13189
598.826	13384
599.304	13378
599.782	13664
600.26	13570
600.738	13768
601.216	13617
601.694	13734
602.173	13897
602.651	13994
603.129	13809
603.607	13878
604.085	13951
604.564	13948
605.042	13896
605.52	13721
605.999	14049
606.477	13898
606.956	13999
607.434	14048
607.913	14097
608.391	14049
608.87	14023
609.348	13917
609.827	13967
610.306	13964
610.785	13959
611.263	14040
611.742	14045
612.221	13869
612.7	13936
613.179	13943
613.658	13805
614.137	14089
614.616	14221
615.095	13934
615.574	14023
616.053	14139
616.532	14113
617.011	14193
617.491	14249
617.97	14180
618.449	14301
618.928	14415
619.408	14312
619.887	14396
620.367	14449
620.846	14640
621.326	14582
621.805	14885
622.285	14882
622.764	14884
623.244	14879
623.724	14879
624.203	14880
624.683	14629
625.163	14880
625.643	14881
626.123	14882
626.602	14877
627.082	14881
627.562	14880
628.042	14886
628.522	14882
629.002	14883
629.482	14881
629.963	14878
630.443	14882
630.923	14887
631.403	14876
631.883	14882
632.364	14882
632.844	14880
633.324	14884
633.805	14882
634.285	14879
634.766	14660
635.246	14881
635.727	14880
636.207	14877
636.688	14877
637.168	14666
637.649	14573
638.13	14486
638.611	14589
639.091	14645
639.572	14601
640.053	14512
640.534	14602
641.015	14542
641.496	14346
641.977	14611
642.458	14507
642.939	14535
643.42	14545
643.901	14590
644.382	14878
644.863	14878
645.345	14884
645.826	14879
646.307	14647
646.788	14889
647.27	14618
647.751	14880
648.233	14880
648.714	14599
649.196	14875
649.677	14881
650.159	14882
650.64	14671
651.122	14882
651.603	14888
652.085	14882
652.567	14879
653.049	14882
653.53	14882
654.012	14881
654.494	14685
654.976	14880
655.458	14883
655.94	14883
656.422	14880
656.904	14881
657.386	14629
657.868	14593
658.35	14504
658.833	14606
659.315	14615
659.797	14430
660.279	14447
660.762	14562
661.244	14471
661.726	14309
662.209	14252
662.691	14184
663.174	13901
663.656	14031
664.139	14089
664.621	14030
665.104	13944
665.587	14059
666.069	14058
666.552	14049
667.035	13917
667.517	13910
668	14013
668.483	13971
668.966	13847
669.449	13759
669.932	13797
670.415	13928
670.898	13851
671.381	13901
671.864	13974
672.347	13885
672.83	13929
673.313	13959
673.797	13898
674.28	14104
674.763	14110
675.247	14179
675.73	14196
676.213	14310
676.697	14350
677.18	14266
677.664	14261
678.147	14244
678.631	14308
679.114	14427
679.598	14458
680.082	14512
680.565	14418
681.049	14343
681.533	14389
682.017	14574
682.5	14566
682.984	14611
683.468	14547
683.952	14282
684.436	14473
684.92	14325
685.404	14429
685.888	14595
686.372	14555
686.856	14595
687.341	14688
687.825	14481
688.309	14481
688.793	14393
689.278	14209
689.762	14364
690.246	14342
690.731	14431
691.215	14481
691.7	14134
692.184	14267
692.669	14249
693.153	14358
693.638	14205
694.122	14150
694.607	14187
695.092	14054
695.577	14220
696.061	14019
696.546	13977
697.031	13944
697.516	14061
698.001	14089
698.486	14024
698.971	14144
699.456	13861
699.941	13837
700.426	13813
700.911	13881
701.396	13729
701.881	13804
702.366	13768
702.852	13770
703.337	13900
703.822	13869
704.308	13820
704.793	13862
705.278	13876
705.764	13929
706.249	13851
706.735	13841
707.22	13937
707.706	13688
708.191	13839
708.677	13853
709.163	13803
709.648	13917
710.134	14047
710.62	13869
711.106	13835
711.592	13977
712.077	13983
712.563	13744
713.049	13749
713.535	13935
714.021	13829
714.507	13787
714.993	13667
715.479	13811
715.966	13641
716.452	13614
716.938	13604
717.424	13191
717.91	13447
718.397	13371
718.883	13320
719.369	13361
719.856	13249
720.342	13407
720.829	13242
721.315	13279
721.802	13207
722.288	13323
722.775	12889
723.262	12540
723.748	13044
724.235	12977
724.722	13122
725.208	12913
725.695	12926
726.182	12902
726.669	12742
727.156	12773
727.643	12650
728.13	12671
728.617	12603
729.104	12627
729.591	12546
730.078	12622
730.565	12680
731.052	12496
731.539	12504
732.027	12391
732.514	12263
733.001	12342
733.488	12210
733.976	12141
734.463	12110
734.951	12115
735.438	12273
735.926	12138
736.413	12182
736.901	12140
737.388	12328
737.876	12279
738.364	12157
738.851	12117
739.339	12012
739.827	12071
740.314	11721
740.802	11821
741.29	11921
741.778	11834
742.266	11876
742.754	11924
743.242	12001
743.73	11760
744.218	11693
744.706	11558
745.194	11699
745.682	11647
746.17	11698
746.659	11751
747.147	11487
747.635	11570
748.123	11593
748.612	11472
749.1	11391
749.589	11467
750.077	11362
750.566	11260
751.054	11286
751.543	11269
752.031	11006
752.52	10993
753.008	10797
753.497	10788
753.986	10721
754.474	10655
754.963	10778
755.452	10633
755.941	10615
756.43	10628
756.919	10567
757.408	10509
757.896	10572
758.385	10600
758.875	10532
759.364	10430
759.853	10405
760.342	10252
760.831	10467
761.32	10328
761.809	10132
762.299	10165
762.788	10186
763.277	10161
763.767	10015
764.256	10005
764.745	9882
765.235	10058
765.724	9766
766.214	9848
766.703	9776
767.193	9659
767.683	9709
768.172	9573
768.662	9647
769.152	9553
769.641	9501
770.131	9265
770.621	9396
771.111	9327
771.601	9349
772.09	9275
772.58	9150
773.07	9128
773.56	9185
774.05	9026
774.54	8993
775.031	8954
775.521	8924
776.011	8930
776.501	9026
776.991	8887
777.482	8966
777.972	8716
778.462	8717
778.953	8797
779.443	8743
779.933	8668
780.424	8509
780.914	8531
781.405	8515
781.895	8433
782.386	8424
782.877	8388
783.367	8239
783.858	8198
784.349	8239
784.839	8210
785.33	8223
785.821	8135
786.312	8037
786.803	8059
787.293	8076
787.784	7931
788.275	7815
788.766	7729
789.257	7886
789.748	7745
790.24	7688
790.731	7751
791.222	7643
791.713	7601
792.204	7617
792.696	7404
793.187	7457
793.678	7384
794.169	7208
794.661	7326
795.152	7270
795.644	7231
796.135	7213
796.627	7238
797.118	7098
797.61	7070
798.101	6996
798.593	7083
799.085	6982
799.576	6986
800.068	6855
800.56	6853
801.052	6656
801.544	6617
802.035	6640
802.527	6564
803.019	6515
803.511	6480
804.003	6475
804.495	6527
804.987	6450
805.479	6290
805.971	6336
806.464	6316
806.956	6174
807.448	6182
807.94	6200
808.433	6151
808.925	6148
809.417	6087
809.91	6092
810.402	5937
810.894	5960
811.387	5987
811.879	5835
812.372	5840
812.865	5711
813.357	5703
813.85	5673
814.342	5648
814.835	5640
815.328	5648
815.821	5587
816.313	5589
816.806	5593
817.299	5525
817.792	5574
818.285	5520
818.778	5601
819.271	5585
819.764	5481
820.257	5480
820.75	5464
821.243	5461
821.736	5375
822.229	5431
822.722	5433
823.216	5537
