Data from lamp4bck_noballon_Subt2__99__299.txt Node

Date: Wed Apr 09 11:11:20 CEST 2025
User: fys-lab-0081
Spectrometer: S04999
Trigger mode: 0
Resolution mode: 1024 pixels
Integration Time (sec): 1.000000E-1
Scans to average: 1
Nonlinearity correction enabled: false
Boxcar width: 0
Baseline correction enabled: true
XAxis mode: Wavelengths
Number of Pixels in Spectrum: 1024
>>>>>Begin Spectral Data<<<<<
336.42	5
336.877	4
337.334	5
337.792	7
338.249	11
338.706	1
339.164	9
339.621	6
340.079	8
340.536	9
340.994	9
341.452	11
341.909	10
342.367	5
342.825	6
343.283	14
343.741	6
344.198	10
344.656	6
345.114	5
345.572	12
346.03	7
346.488	9
346.947	7
347.405	14
347.863	9
348.321	10
348.779	18
349.238	9
349.696	12
350.154	12
350.613	12
351.071	10
351.53	18
351.988	16
352.447	12
352.905	9
353.364	16
353.823	16
354.282	17
354.74	11
355.199	20
355.658	22
356.117	16
356.576	16
357.035	16
357.494	18
357.953	21
358.412	23
358.871	21
359.33	20
359.789	19
360.249	26
360.708	27
361.167	26
361.626	26
362.086	29
362.545	27
363.005	27
363.464	27
363.924	30
364.383	32
364.843	36
365.303	35
365.762	36
366.222	32
366.682	33
367.142	39
367.601	39
368.061	33
368.521	38
368.981	36
369.441	40
369.901	43
370.361	42
370.821	40
371.282	37
371.742	43
372.202	46
372.662	50
373.123	44
373.583	50
374.043	54
374.504	52
374.964	49
375.425	52
375.885	53
376.346	56
376.806	61
377.267	58
377.728	60
378.188	58
378.649	59
379.11	66
379.571	61
380.032	68
380.493	71
380.954	75
381.414	72
381.876	74
382.337	77
382.798	82
383.259	90
383.72	92
384.181	87
384.642	90
385.104	99
385.565	99
386.026	105
386.488	102
386.949	107
387.411	109
387.872	120
388.334	117
388.795	121
389.257	122
389.719	125
390.181	128
390.642	131
391.104	134
391.566	141
392.028	142
392.49	150
392.952	154
393.414	156
393.876	158
394.338	155
394.8	158
395.262	160
395.724	172
396.186	171
396.648	175
397.111	173
397.573	180
398.035	182
398.498	188
398.96	187
399.423	195
399.885	196
400.348	201
400.81	211
401.273	211
401.736	208
402.198	229
402.661	235
403.124	228
403.587	240
404.049	244.5
404.512	249
404.975	253
405.438	253
405.901	258
406.364	260
406.827	261
407.29	264
407.754	263
408.217	268
408.68	267
409.143	276
409.607	278
410.07	281
410.533	279
410.997	287
411.46	292
411.924	303
412.387	302
412.851	307
413.314	317
413.778	318
414.242	320
414.705	335
415.169	333
415.633	339
416.097	332
416.561	340
417.024	347
417.488	341
417.952	351
418.416	344
418.88	347
419.344	351
419.809	355
420.273	359
420.737	357
421.201	369
421.665	378
422.13	383
422.594	393
423.059	402
423.523	407
423.987	412
424.452	427
424.916	430
425.381	444
425.846	445
426.31	457
426.775	459
427.24	472
427.704	460
428.169	474
428.634	470
429.099	473
429.564	471
430.029	479
430.494	476
430.959	486
431.424	476
431.889	496
432.354	506
432.819	502
433.284	530
433.75	525
434.215	552
434.68	552
435.146	556
435.611	575
436.077	599
436.542	595
437.008	629
437.473	624
437.939	631
438.404	642
438.87	665
439.336	649
439.801	644
440.267	659
440.733	680
441.199	681
441.665	682
442.131	707
442.596	688
443.062	714
443.529	742
443.995	754
444.461	765
444.927	808
445.393	819
445.859	850
446.325	861
446.792	912
447.258	907
447.724	939
448.191	972
448.657	977
449.124	1001
449.59	992
450.057	1056
450.523	1063
450.99	1078
451.457	1067
451.923	1099
452.39	1092
452.857	1120
453.324	1108
453.791	1130
454.257	1132
454.724	1152
455.191	1148
455.658	1153
456.125	1195
456.592	1177
457.059	1196
457.527	1212
457.994	1253
458.461	1260
458.928	1283
459.396	1267
459.863	1319
460.33	1304
460.798	1307
461.265	1330
461.732	1320
462.2	1357
462.668	1353
463.135	1373
463.603	1323
464.07	1372
464.538	1333
465.006	1379
465.474	1349
465.941	1359
466.409	1371
466.877	1336
467.345	1378
467.813	1373
468.281	1383
468.749	1405
469.217	1403
469.685	1421
470.153	1458
470.621	1458
471.09	1463
471.558	1530
472.026	1534
472.494	1579
472.963	1600
473.431	1643
473.9	1676
474.368	1716
474.837	1740
475.305	1752
475.774	1788
476.242	1833
476.711	1833
477.18	1895
477.648	1870
478.117	1888
478.586	1870
479.055	1883
479.524	1908
479.993	1904
480.462	1904
480.93	1912
481.399	1914
481.869	1922
482.338	1903
482.807	1944
483.276	1928
483.745	1927
484.214	1982
484.684	2019
485.153	2028
485.622	2060
486.092	2121
486.561	2079
487.031	2155
487.5	2203
487.97	2215
488.439	2282
488.909	2355
489.378	2438
489.848	2427
490.318	2480
490.787	2575
491.257	2596
491.727	2607
492.197	2637
492.667	2645
493.137	2679
493.607	2706
494.077	2735
494.547	2694
495.017	2681
495.487	2732
495.957	2786
496.427	2726
496.897	2728
497.368	2768
497.838	2743
498.308	2777
498.779	2825
499.249	2848
499.719	2881
500.19	2910
500.66	2933
501.131	2949
501.602	3002
502.072	2998
502.543	3043
503.014	3167
503.484	3148
503.955	3238
504.426	3369
504.897	3374
505.368	3446
505.838	3538
506.309	3618
506.78	3715
507.251	3771
507.722	3872
508.194	3953
508.665	4008
509.136	3989
509.607	4122
510.078	4143
510.549	4152
511.021	4270
511.492	4282
511.964	4346
512.435	4405
512.906	4373
513.378	4407
513.849	4474
514.321	4501
514.793	4552
515.264	4620
515.736	4658
516.208	4746
516.679	4798
517.151	4820
517.623	4852
518.095	4943
518.567	4981
519.038	5071
519.51	5040
519.982	5106
520.454	5179
520.927	5270
521.399	5357
521.871	5426
522.343	5437
522.815	5460
523.287	5459
523.76	5503
524.232	5591
524.704	5628
525.177	5532
525.649	5563
526.122	5625
526.594	5489
527.067	5639
527.539	5734
528.012	5678
528.484	5656
528.957	5682
529.43	5687
529.903	5640
530.375	5841
530.848	5716
531.321	5809
531.794	5794
532.267	5922
532.74	5820
533.213	5799
533.686	5893
534.159	5875
534.632	6015
535.105	6057
535.578	6205
536.051	6219
536.525	6232
536.998	6208
537.471	6366
537.945	6317
538.418	6422
538.891	6406
539.365	6496
539.838	6517
540.312	6498
540.786	6523
541.259	6497
541.733	6618
542.206	6654
542.68	6575
543.154	6590
543.628	6602
544.101	6716
544.575	6593
545.049	6414
545.523	6529
545.997	6531
546.471	6604
546.945	6556
547.419	6661
547.893	6444
548.367	6598
548.842	6514
549.316	6549
549.79	6571
550.264	6512
550.739	6597
551.213	6594
551.687	6604
552.162	6639
552.636	6575
553.111	6582
553.585	6800
554.06	6721
554.534	6837
555.009	6795
555.484	6899
555.958	7001
556.433	6985
556.908	7089
557.383	7011
557.858	7207
558.333	7233
558.807	7195
559.282	7258
559.757	7449
560.232	7424
560.708	7286
561.183	7230
561.658	7330
562.133	7316
562.608	7241
563.083	7421
563.559	7275
564.034	7312
564.509	7308
564.985	7327
565.46	7219
565.936	7361
566.411	7336
566.887	7269
567.362	7375
567.838	7405
568.313	7495
568.789	7311
569.265	7291
569.74	7354
570.216	7281
570.692	7388
571.168	7396
571.644	7424
572.12	7436
572.596	7505
573.071	7537
573.547	7778
574.024	7833
574.5	7866
574.976	7869
575.452	7992
575.928	8110
576.404	8203
576.881	8440
577.357	8268
577.833	8296
578.31	8526
578.786	8589
579.262	8666
579.739	8554
580.215	8781
580.692	8772
581.169	8719
581.645	8747
582.122	9034
582.598	9031
583.075	9032
583.552	9058
584.029	8975
584.506	8893
584.982	8832
585.459	9054
585.936	8938
586.413	9052
586.89	9220
587.367	9139
587.844	9255
588.321	9149
588.799	9189
589.276	9131
589.753	9295
590.23	9316
590.707	9287
591.185	9287
591.662	9314
592.139	9401
592.617	9484
593.094	9443
593.572	9503
594.049	9607
594.527	9713
595.004	9765
595.482	10006
595.96	9962
596.437	9966
596.915	10205
597.393	10046
597.871	10296
598.349	10202
598.826	10383
599.304	10332
599.782	10521
600.26	10445
600.738	10701
601.216	10633
601.694	10672
602.173	10702
602.651	10740
603.129	10545
603.607	10620
604.085	10671
604.564	10715
605.042	10786
605.52	10706
605.999	10950
606.477	10660
606.956	10686
607.434	10813
607.913	10940
608.391	10909
608.87	10857
609.348	10679
609.827	10695
610.306	10791
610.785	10821
611.263	10787
611.742	10701
612.221	10567
612.7	10730
613.179	10790
613.658	10665
614.137	10836
614.616	10912
615.095	10727
615.574	10871
616.053	10947
616.532	10865
617.011	10878
617.491	10979
617.97	10955
618.449	11083
618.928	11134
619.408	11038
619.887	11158
620.367	11192
620.846	11313
621.326	11228
621.805	11474
622.285	11466
622.764	11522
623.244	11546
623.724	11617
624.203	11664
624.683	11485
625.163	11700
625.643	11665
626.123	11556
626.602	11787
627.082	11557
627.562	11531
628.042	11748
628.522	11633
629.002	11520
629.482	11632
629.963	11655
630.443	11577
630.923	11593
631.403	11660
631.883	11609
632.364	11635
632.844	11540
633.324	11606
633.805	11669
634.285	11517
634.766	11429
635.246	11441
635.727	11437
636.207	11407
636.688	11401
637.168	11393
637.649	11338
638.13	11313
638.611	11391
639.091	11368
639.572	11308
640.053	11270
640.534	11346
641.015	11288
641.496	11134
641.977	11321
642.458	11238
642.939	11299
643.42	11342
643.901	11309
644.382	11404
644.863	11340
645.345	11285
645.826	11278
646.307	11271
646.788	11454
647.27	11265
647.751	11278
648.233	11340
648.714	11097
649.196	11398
649.677	11340
650.159	11339
650.64	11222
651.122	11404
651.603	11262
652.085	11361
652.567	11425
653.049	11348
653.53	11331
654.012	11477
654.494	11279
654.976	11445
655.458	11384
655.94	11356
656.422	11534
656.904	11352
657.386	11240
657.868	11252
658.35	11193
658.833	11282
659.315	11302
659.797	11125
660.279	11051
660.762	11082
661.244	10982
661.726	10842
662.209	10867
662.691	10847
663.174	10689
663.656	10749
664.139	10769
664.621	10632
665.104	10573
665.587	10729
666.069	10780
666.552	10759
667.035	10611
667.517	10647
668	10758
668.483	10738
668.966	10639
669.449	10591
669.932	10605
670.415	10723
670.898	10638
671.381	10664
671.864	10662
672.347	10508
672.83	10511
673.313	10541
673.797	10515
674.28	10732
674.763	10774
675.247	10758
675.73	10675
676.213	10760
676.697	10812
677.18	10826
677.664	10847
678.147	10811
678.631	10879
679.114	10929
679.598	10938
680.082	11049
680.565	11043
681.049	10995
681.533	10985
682.017	11013
682.5	10934
682.984	10984
683.468	11006
683.952	10813
684.436	10995
684.92	10866
685.404	10938
685.888	11016
686.372	10905
686.856	10947
687.341	11044
687.825	10908
688.309	10949
688.793	10973
689.278	10844
689.762	10915
690.246	10835
690.731	10868
691.215	10924
691.7	10685
692.184	10800
692.669	10704
693.153	10722
693.638	10523
694.122	10522
694.607	10630
695.092	10482
695.577	10555
696.061	10334
696.546	10370
697.031	10348
697.516	10449
698.001	10463
698.486	10373
698.971	10422
699.456	10178
699.941	10173
700.426	10191
700.911	10336
701.396	10290
701.881	10338
702.366	10253
702.852	10200
703.337	10244
703.822	10229
704.308	10257
704.793	10314
705.278	10334
705.764	10380
706.249	10325
706.735	10310
707.22	10376
707.706	10223
708.191	10382
708.677	10349
709.163	10181
709.648	10196
710.134	10365
710.62	10270
711.106	10315
711.592	10482
712.077	10431
712.563	10138
713.049	10106
713.535	10312
714.021	10265
714.507	10184
714.993	10040
715.479	10092
715.966	9968
716.452	10009
716.938	10083
717.424	9827
717.91	10022
718.397	9949
718.883	9881
719.369	9905
719.856	9794
720.342	9944
720.829	9842
721.315	9887
721.802	9779
722.288	9802
722.775	9392
723.262	9140
723.748	9505
724.235	9455
724.722	9582
725.208	9393
725.695	9385
726.182	9361
726.669	9258
727.156	9304
727.643	9183
728.13	9143
728.617	9027
729.104	9058
729.591	8975
730.078	9074
730.565	9104
731.052	8982
731.539	9005
732.027	8912
732.514	8769
733.001	8833
733.488	8774
733.976	8773
734.463	8746
734.951	8758
735.438	8828
735.926	8705
736.413	8735
736.901	8650
737.388	8710
737.876	8689
738.364	8657
738.851	8735
739.339	8760
739.827	8842
740.314	8535
740.802	8544
741.29	8541
741.778	8442
742.266	8456
742.754	8471
743.242	8527
743.73	8378
744.218	8342
744.706	8248
745.194	8323
745.682	8273
746.17	8309
746.659	8320
747.147	8108
747.635	8120
748.123	8072
748.612	7953
749.1	7931
749.589	8035
750.077	8020
750.566	8004
751.054	8061
751.543	8106
752.031	7900
752.52	7826
753.008	7635
753.497	7667
753.986	7664
754.474	7642
754.963	7705
755.452	7563
755.941	7519
756.43	7505
756.919	7447
757.408	7374
757.896	7389
758.385	7406
758.875	7313
759.364	7250
759.853	7165
760.342	7044
760.831	7205
761.32	7140
761.809	7038
762.299	7071
762.788	7055
763.277	7002
763.767	6898
764.256	6879
764.745	6815
765.235	6938
765.724	6728
766.214	6793
766.703	6693
767.193	6592
767.683	6596
768.172	6458
768.662	6504
769.152	6467
769.641	6503
770.131	6340
770.621	6417
771.111	6307
771.601	6309
772.09	6280
772.58	6219
773.07	6238
773.56	6269
774.05	6123
774.54	6083
775.031	6064
775.521	6064
776.011	6045
776.501	6066
776.991	5916
777.482	5969
777.972	5817
778.462	5794
778.953	5814
779.443	5771
779.933	5769
780.424	5722
780.914	5763
781.405	5760
781.895	5687
782.386	5651
782.877	5615
783.367	5496
783.858	5449
784.349	5466
784.839	5419
785.33	5467
785.821	5444
786.312	5404
786.803	5425
787.293	5410
787.784	5322
788.275	5245
788.766	5196
789.257	5269
789.748	5139
790.24	5072
790.731	5079
791.222	4978
791.713	4937
792.204	4949
792.696	4842
793.187	4916
793.678	4882
794.169	4728
794.661	4784
795.152	4706
795.644	4650
796.135	4639
796.627	4681
797.118	4572
797.61	4533
798.101	4466
798.593	4529
799.085	4464
799.576	4479
800.068	4407
800.56	4413
801.052	4322
801.544	4307
802.035	4308
802.527	4243
803.019	4177
803.511	4126
804.003	4092
804.495	4129
804.987	4088
805.479	4014
805.971	4040
806.464	4017
806.956	3899
807.448	3873
807.94	3868
808.433	3846
808.925	3820
809.417	3790
809.91	3754
810.402	3649
810.894	3671
811.387	3694
811.879	3640
812.372	3669
812.865	3641
813.357	3645
813.85	3615
814.342	3597
814.835	3589
815.328	3558
815.821	3495
816.313	3494
816.806	3483
817.299	3425
817.792	3447
818.285	3390
818.778	3433
819.271	3424
819.764	3384
820.257	3401
820.75	3396
821.243	3396
821.736	3343
822.229	3374
822.722	3355
823.216	3413
