Data from lamp4bck_noballon_Subt4__15__108.txt Node

Date: Wed Apr 09 09:41:02 CEST 2025
User: fys-lab-0081
Spectrometer: S04999
Trigger mode: 0
Resolution mode: 1024 pixels
Integration Time (sec): 1.000000E-1
Scans to average: 1
Nonlinearity correction enabled: false
Boxcar width: 0
Baseline correction enabled: true
XAxis mode: Wavelengths
Number of Pixels in Spectrum: 1024
>>>>>Begin Spectral Data<<<<<
336.42	11
336.877	8
337.334	8
337.792	10
338.249	10
338.706	10
339.164	10
339.621	7
340.079	12
340.536	16
340.994	16
341.452	10
341.909	13
342.367	9
342.825	11
343.283	16
343.741	13
344.198	12
344.656	13
345.114	15
345.572	15
346.03	19
346.488	16
346.947	18
347.405	21
347.863	17
348.321	20
348.779	21
349.238	22
349.696	19
350.154	18
350.613	21
351.071	23
351.53	27
351.988	26
352.447	23
352.905	27
353.364	21
353.823	27
354.282	30
354.74	24
355.199	31
355.658	33
356.117	29
356.576	37
357.035	33
357.494	33
357.953	43
358.412	43
358.871	32
359.33	35
359.789	41
360.249	39
360.708	45
361.167	40
361.626	47
362.086	47
362.545	49
363.005	55
363.464	49
363.924	50
364.383	62
364.843	55
365.303	56
365.762	60
366.222	62
366.682	63
367.142	69
367.601	64
368.061	66
368.521	70
368.981	66
369.441	71
369.901	75
370.361	71
370.821	70
371.282	76
371.742	79
372.202	79
372.662	87
373.123	83
373.583	84
374.043	90
374.504	86
374.964	90
375.425	92
375.885	101
376.346	99
376.806	102
377.267	108
377.728	112
378.188	107
378.649	112
379.11	110
379.571	112
380.032	119
380.493	116
380.954	125
381.414	126
381.876	134
382.337	140
382.798	141
383.259	149
383.72	153
384.181	159
384.642	160
385.104	172
385.565	176
386.026	178
386.488	184
386.949	189
387.411	189
387.872	189
388.334	200
388.795	204
389.257	213
389.719	214
390.181	212
390.642	227
391.104	228
391.566	235
392.028	251
392.49	247
392.952	253
393.414	264
393.876	262
394.338	272
394.8	272
395.262	279
395.724	284
396.186	293
396.648	297
397.111	297
397.573	306
398.035	306
398.498	315
398.96	316
399.423	327
399.885	338
400.348	336
400.81	354
401.273	350
401.736	353
402.198	375
402.661	384
403.124	388
403.587	399
404.049	412.5
404.512	426
404.975	428
405.438	415
405.901	427
406.364	430
406.827	431
407.29	435
407.754	440
408.217	440
408.68	437
409.143	446
409.607	456
410.07	460
410.533	460
410.997	475
411.46	476
411.924	483
412.387	486
412.851	509
413.314	528
413.778	525
414.242	536
414.705	557
415.169	545
415.633	552
416.097	555
416.561	561
417.024	585
417.488	562
417.952	568
418.416	570
418.88	571
419.344	577
419.809	572
420.273	591
420.737	579
421.201	597
421.665	611
422.13	603
422.594	633
423.059	645
423.523	658
423.987	664
424.452	679
424.916	703
425.381	723
425.846	722
426.31	724
426.775	735
427.24	758
427.704	739
428.169	754
428.634	754
429.099	745
429.564	747
430.029	763
430.494	758
430.959	772
431.424	758
431.889	782
432.354	789
432.819	784
433.284	819
433.75	819
434.215	860
434.68	867
435.146	892
435.611	920
436.077	944
436.542	963
437.008	991
437.473	993
437.939	1016
438.404	1040
438.87	1052
439.336	1028
439.801	1029
440.267	1052
440.733	1069
441.199	1074
441.665	1072
442.131	1108
442.596	1088
443.062	1119
443.529	1162
443.995	1177
444.461	1200
444.927	1243
445.393	1261
445.859	1318
446.325	1331
446.792	1418
447.258	1412
447.724	1448
448.191	1512
448.657	1519
449.124	1576
449.59	1545
450.057	1633
450.523	1640
450.99	1671
451.457	1656
451.923	1688
452.39	1676
452.857	1713
453.324	1706
453.791	1753
454.257	1740
454.724	1757
455.191	1772
455.658	1763
456.125	1821
456.592	1792
457.059	1825
457.527	1856
457.994	1918
458.461	1913
458.928	1946
459.396	1951
459.863	2028
460.33	2014
460.798	2018
461.265	2022
461.732	2012
462.2	2064
462.668	2050
463.135	2094
463.603	2036
464.07	2085
464.538	2028
465.006	2102
465.474	2039
465.941	2053
466.409	2088
466.877	2030
467.345	2100
467.813	2082
468.281	2103
468.749	2118
469.217	2117
469.685	2140
470.153	2180
470.621	2182
471.09	2179
471.558	2282
472.026	2275
472.494	2356
472.963	2398
473.431	2461
473.9	2500
474.368	2552
474.837	2593
475.305	2633
475.774	2688
476.242	2750
476.711	2739
477.18	2811
477.648	2796
478.117	2822
478.586	2784
479.055	2795
479.524	2826
479.993	2827
480.462	2808
480.93	2814
481.399	2827
481.869	2847
482.338	2821
482.807	2859
483.276	2838
483.745	2847
484.214	2932
484.684	2971
485.153	2965
485.622	2995
486.092	3084
486.561	3008
487.031	3123
487.5	3196
487.97	3199
488.439	3277
488.909	3364
489.378	3488
489.848	3483
490.318	3578
490.787	3722
491.257	3759
491.727	3784
492.197	3886
492.667	3894
493.137	3936
493.607	3954
494.077	3982
494.547	3926
495.017	3920
495.487	3993
495.957	4067
496.427	3981
496.897	4004
497.368	4051
497.838	3996
498.308	4057
498.779	4096
499.249	4105
499.719	4147
500.19	4183
500.66	4196
501.131	4216
501.602	4332
502.072	4341
502.543	4376
503.014	4547
503.484	4532
503.955	4658
504.426	4826
504.897	4839
505.368	4933
505.838	4981
506.309	5113
506.78	5285
507.251	5374
507.722	5449
508.194	5615
508.665	5681
509.136	5621
509.607	5788
510.078	5884
510.549	5920
511.021	6069
511.492	6068
511.964	6164
512.435	6254
512.906	6197
513.378	6275
513.849	6369
514.321	6358
514.793	6439
515.264	6510
515.736	6566
516.208	6667
516.679	6720
517.151	6761
517.623	6809
518.095	6916
518.567	7016
519.038	7135
519.51	7107
519.982	7220
520.454	7307
520.927	7397
521.399	7462
521.871	7511
522.343	7565
522.815	7648
523.287	7628
523.76	7665
524.232	7804
524.704	7833
525.177	7687
525.649	7793
526.122	7915
526.594	7708
527.067	7861
527.539	7944
528.012	7898
528.484	7885
528.957	7936
529.43	7935
529.903	7918
530.375	8159
530.848	7950
531.321	8050
531.794	8056
532.267	8189
532.74	8076
533.213	8085
533.686	8224
534.159	8186
534.632	8342
535.105	8359
535.578	8499
536.051	8488
536.525	8518
536.998	8545
537.471	8734
537.945	8584
538.418	8718
538.891	8772
539.365	8874
539.838	8925
540.312	8934
540.786	9014
541.259	9000
541.733	9047
542.206	9033
542.68	8910
543.154	8915
543.628	8908
544.101	9125
544.575	9058
545.049	8812
545.523	8947
545.997	8905
546.471	9040
546.945	8978
547.419	9111
547.893	8776
548.367	8939
548.842	8855
549.316	8910
549.79	8941
550.264	8861
550.739	8946
551.213	8897
551.687	8930
552.162	9069
552.636	9036
553.111	8970
553.585	9138
554.06	8994
554.534	9225
555.009	9168
555.484	9264
555.958	9350
556.433	9398
556.908	9527
557.383	9389
557.858	9603
558.333	9645
558.807	9600
559.282	9645
559.757	9921
560.232	9984
560.708	9816
561.183	9750
561.658	9841
562.133	9838
562.608	9788
563.083	10053
563.559	9766
564.034	9825
564.509	9893
564.985	9919
565.46	9712
565.936	9829
566.411	9845
566.887	9772
567.362	9866
567.838	9818
568.313	9914
568.789	9840
569.265	9856
569.74	9886
570.216	9793
570.692	9993
571.168	10018
571.644	9968
572.12	9931
572.596	10009
573.071	10035
573.547	10275
574.024	10274
574.5	10349
574.976	10449
575.452	10647
575.928	10741
576.404	10796
576.881	11156
577.357	10958
577.833	10981
578.31	11234
578.786	11392
579.262	11607
579.739	11492
580.215	11733
580.692	11650
581.169	11552
581.645	11578
582.122	11873
582.598	11831
583.075	11819
583.552	11933
584.029	11966
584.506	11916
584.982	11797
585.459	11985
585.936	11858
586.413	12008
586.89	12195
587.367	12061
587.844	12235
588.321	12151
588.799	12184
589.276	11970
589.753	12084
590.23	12161
590.707	12223
591.185	12233
591.662	12163
592.139	12254
592.617	12441
593.094	12424
593.572	12473
594.049	12536
594.527	12619
595.004	12691
595.482	12973
595.96	12825
596.437	12755
596.915	13104
597.393	13049
597.871	13371
598.349	13180
598.826	13369
599.304	13375
599.782	13656
600.26	13560
600.738	13752
601.216	13612
601.694	13723
602.173	13896
602.651	13987
603.129	13798
603.607	13867
604.085	13947
604.564	13932
605.042	13871
605.52	13723
605.999	14053
606.477	13879
606.956	13982
607.434	14042
607.913	14102
608.391	14045
608.87	14012
609.348	13898
609.827	13940
610.306	13957
610.785	13936
611.263	14031
611.742	14027
612.221	13861
612.7	13916
613.179	13933
613.658	13786
614.137	14078
614.616	14203
615.095	13924
615.574	14001
616.053	14127
616.532	14109
617.011	14188
617.491	14236
617.97	14181
618.449	14292
618.928	14403
619.408	14300
619.887	14388
620.367	14443
620.846	14620
621.326	14589
621.805	14885
622.285	14882
622.764	14884
623.244	14879
623.724	14879
624.203	14880
624.683	14619
625.163	14880
625.643	14881
626.123	14882
626.602	14877
627.082	14881
627.562	14880
628.042	14886
628.522	14882
629.002	14883
629.482	14881
629.963	14878
630.443	14882
630.923	14887
631.403	14876
631.883	14882
632.364	14882
632.844	14880
633.324	14884
633.805	14882
634.285	14879
634.766	14644
635.246	14677
635.727	14880
636.207	14877
636.688	14877
637.168	14663
637.649	14550
638.13	14478
638.611	14581
639.091	14641
639.572	14593
640.053	14510
640.534	14584
641.015	14537
641.496	14354
641.977	14600
642.458	14492
642.939	14541
643.42	14551
643.901	14571
644.382	14878
644.863	14878
645.345	14884
645.826	14879
646.307	14632
646.788	14889
647.27	14613
647.751	14880
648.233	14880
648.714	14586
649.196	14875
649.677	14881
650.159	14882
650.64	14664
651.122	14882
651.603	14693
652.085	14882
652.567	14879
653.049	14882
653.53	14882
654.012	14881
654.494	14668
654.976	14880
655.458	14883
655.94	14883
656.422	14880
656.904	14881
657.386	14613
657.868	14584
658.35	14491
658.833	14574
659.315	14599
659.797	14416
660.279	14421
660.762	14551
661.244	14464
661.726	14294
662.209	14252
662.691	14153
663.174	13887
663.656	14002
664.139	14074
664.621	14012
665.104	13930
665.587	14047
666.069	14057
666.552	14035
667.035	13894
667.517	13921
668	13993
668.483	13947
668.966	13837
669.449	13752
669.932	13777
670.415	13934
670.898	13839
671.381	13903
671.864	13970
672.347	13880
672.83	13915
673.313	13957
673.797	13891
674.28	14091
674.763	14115
675.247	14194
675.73	14167
676.213	14283
676.697	14329
677.18	14261
677.664	14252
678.147	14236
678.631	14303
679.114	14417
679.598	14457
680.082	14493
680.565	14394
681.049	14333
681.533	14360
682.017	14563
682.5	14547
682.984	14608
683.468	14547
683.952	14266
684.436	14451
684.92	14311
685.404	14403
685.888	14582
686.372	14539
686.856	14587
687.341	14685
687.825	14470
688.309	14460
688.793	14388
689.278	14201
689.762	14358
690.246	14331
690.731	14436
691.215	14469
691.7	14124
692.184	14265
692.669	14240
693.153	14353
693.638	14183
694.122	14140
694.607	14193
695.092	14044
695.577	14208
696.061	13991
696.546	13958
697.031	13927
697.516	14061
698.001	14065
698.486	14018
698.971	14129
699.456	13860
699.941	13829
700.426	13788
700.911	13875
701.396	13735
701.881	13807
702.366	13754
702.852	13755
703.337	13882
703.822	13852
704.308	13801
704.793	13857
705.278	13869
705.764	13918
706.249	13838
706.735	13835
707.22	13936
707.706	13672
708.191	13819
708.677	13843
709.163	13790
709.648	13901
710.134	14030
710.62	13864
711.106	13824
711.592	13976
712.077	13977
712.563	13726
713.049	13718
713.535	13904
714.021	13821
714.507	13765
714.993	13642
715.479	13793
715.966	13620
716.452	13606
716.938	13566
717.424	13183
717.91	13431
718.397	13364
718.883	13302
719.369	13354
719.856	13250
720.342	13391
720.829	13227
721.315	13270
721.802	13202
722.288	13307
722.775	12873
723.262	12536
723.748	13028
724.235	12967
724.722	13123
725.208	12903
725.695	12905
726.182	12880
726.669	12723
727.156	12768
727.643	12634
728.13	12663
728.617	12586
729.104	12615
729.591	12528
730.078	12619
730.565	12672
731.052	12485
731.539	12480
732.027	12376
732.514	12247
733.001	12346
733.488	12193
733.976	12133
734.463	12108
734.951	12110
735.438	12263
735.926	12116
736.413	12165
736.901	12135
737.388	12320
737.876	12269
738.364	12136
738.851	12098
739.339	11995
739.827	12051
740.314	11701
740.802	11821
741.29	11918
741.778	11818
742.266	11864
742.754	11916
743.242	12000
743.73	11753
744.218	11700
744.706	11557
745.194	11688
745.682	11644
746.17	11694
746.659	11737
747.147	11462
747.635	11562
748.123	11575
748.612	11455
749.1	11377
749.589	11447
750.077	11354
750.566	11241
751.054	11285
751.543	11248
752.031	11010
752.52	11001
753.008	10780
753.497	10771
753.986	10703
754.474	10651
754.963	10770
755.452	10627
755.941	10604
756.43	10606
756.919	10560
757.408	10489
757.896	10550
758.385	10584
758.875	10510
759.364	10414
759.853	10397
760.342	10252
760.831	10456
761.32	10327
761.809	10128
762.299	10161
762.788	10169
763.277	10159
763.767	10010
764.256	10016
764.745	9880
765.235	10027
765.724	9752
766.214	9838
766.703	9766
767.193	9643
767.683	9700
768.172	9558
768.662	9642
769.152	9547
769.641	9486
770.131	9241
770.621	9389
771.111	9310
771.601	9340
772.09	9262
772.58	9141
773.07	9126
773.56	9166
774.05	9018
774.54	8990
775.031	8946
775.521	8923
776.011	8922
776.501	9022
776.991	8861
777.482	8956
777.972	8706
778.462	8704
778.953	8800
779.443	8723
779.933	8657
780.424	8492
780.914	8518
781.405	8506
781.895	8418
782.386	8412
782.877	8370
783.367	8229
783.858	8180
784.349	8215
784.839	8196
785.33	8217
785.821	8127
786.312	8029
786.803	8046
787.293	8069
787.784	7924
788.275	7802
788.766	7731
789.257	7866
789.748	7742
790.24	7682
790.731	7741
791.222	7619
791.713	7592
792.204	7613
792.696	7384
793.187	7436
793.678	7368
794.169	7207
794.661	7332
795.152	7256
795.644	7220
796.135	7187
796.627	7226
797.118	7097
797.61	7065
798.101	6997
798.593	7080
799.085	6974
799.576	6971
800.068	6858
800.56	6843
801.052	6648
801.544	6624
802.035	6628
802.527	6549
803.019	6504
803.511	6476
804.003	6458
804.495	6523
804.987	6443
805.479	6285
805.971	6318
806.464	6322
806.956	6174
807.448	6178
807.94	6195
808.433	6147
808.925	6132
809.417	6093
809.91	6083
810.402	5931
810.894	5954
811.387	5970
811.879	5826
812.372	5823
812.865	5705
813.357	5702
813.85	5660
814.342	5639
814.835	5644
815.328	5639
815.821	5573
816.313	5582
816.806	5584
817.299	5500
817.792	5557
818.285	5515
818.778	5582
819.271	5585
819.764	5477
820.257	5472
820.75	5456
821.243	5442
821.736	5372
822.229	5421
822.722	5427
823.216	5515
