Data from lamp4bck_noballon_Subt4__9__102.txt Node

Date: Wed Apr 09 09:41:02 CEST 2025
User: fys-lab-0081
Spectrometer: S04999
Trigger mode: 0
Resolution mode: 1024 pixels
Integration Time (sec): 1.000000E-1
Scans to average: 1
Nonlinearity correction enabled: false
Boxcar width: 0
Baseline correction enabled: true
XAxis mode: Wavelengths
Number of Pixels in Spectrum: 1024
>>>>>Begin Spectral Data<<<<<
336.42	8
336.877	11
337.334	10
337.792	4
338.249	14
338.706	10
339.164	10
339.621	9
340.079	12
340.536	14
340.994	18
341.452	9
341.909	11
342.367	9
342.825	10
343.283	15
343.741	14
344.198	11
344.656	13
345.114	11
345.572	17
346.03	21
346.488	19
346.947	14
347.405	21
347.863	19
348.321	21
348.779	19
349.238	20
349.696	25
350.154	24
350.613	18
351.071	18
351.53	25
351.988	28
352.447	23
352.905	26
353.364	22
353.823	25
354.282	35
354.74	29
355.199	34
355.658	33
356.117	34
356.576	39
357.035	36
357.494	39
357.953	39
358.412	43
358.871	33
359.33	37
359.789	39
360.249	39
360.708	46
361.167	46
361.626	49
362.086	44
362.545	47
363.005	54
363.464	46
363.924	52
364.383	62
364.843	55
365.303	58
365.762	61
366.222	60
366.682	67
367.142	69
367.601	65
368.061	65
368.521	68
368.981	70
369.441	70
369.901	76
370.361	73
370.821	72
371.282	78
371.742	75
372.202	80
372.662	84
373.123	83
373.583	86
374.043	86
374.504	83
374.964	90
375.425	98
375.885	96
376.346	103
376.806	97
377.267	105
377.728	110
378.188	109
378.649	115
379.11	112
379.571	113
380.032	118
380.493	118
380.954	125
381.414	127
381.876	132
382.337	142
382.798	145
383.259	149
383.72	149
384.181	161
384.642	160
385.104	171
385.565	176
386.026	183
386.488	189
386.949	186
387.411	193
387.872	194
388.334	200
388.795	204
389.257	211
389.719	213
390.181	219
390.642	228
391.104	225
391.566	231
392.028	251
392.49	250
392.952	254
393.414	262
393.876	261
394.338	272
394.8	277
395.262	282
395.724	285
396.186	298
396.648	294
397.111	298
397.573	308
398.035	304
398.498	318
398.96	318
399.423	326
399.885	339
400.348	337
400.81	357
401.273	352
401.736	364
402.198	378
402.661	389
403.124	389
403.587	400
404.049	411
404.512	422
404.975	426
405.438	419
405.901	430
406.364	437
406.827	441
407.29	441
407.754	441
408.217	445
408.68	442
409.143	451
409.607	459
410.07	458
410.533	463
410.997	480
411.46	471
411.924	487
412.387	488
412.851	511
413.314	529
413.778	525
414.242	535
414.705	552
415.169	550
415.633	553
416.097	558
416.561	562
417.024	583
417.488	558
417.952	571
418.416	571
418.88	575
419.344	571
419.809	573
420.273	586
420.737	581
421.201	595
421.665	618
422.13	604
422.594	634
423.059	648
423.523	651
423.987	663
424.452	684
424.916	705
425.381	725
425.846	727
426.31	724
426.775	739
427.24	756
427.704	733
428.169	753
428.634	761
429.099	745
429.564	748
430.029	768
430.494	761
430.959	773
431.424	762
431.889	782
432.354	793
432.819	782
433.284	816
433.75	821
434.215	861
434.68	875
435.146	889
435.611	921
436.077	950
436.542	963
437.008	992
437.473	997
437.939	1017
438.404	1035
438.87	1056
439.336	1033
439.801	1026
440.267	1052
440.733	1071
441.199	1067
441.665	1075
442.131	1110
442.596	1084
443.062	1120
443.529	1159
443.995	1183
444.461	1198
444.927	1249
445.393	1263
445.859	1327
446.325	1333
446.792	1418
447.258	1412
447.724	1453
448.191	1508
448.657	1523
449.124	1577
449.59	1554
450.057	1631
450.523	1636
450.99	1670
451.457	1661
451.923	1690
452.39	1673
452.857	1719
453.324	1706
453.791	1743
454.257	1744
454.724	1762
455.191	1779
455.658	1769
456.125	1826
456.592	1799
457.059	1831
457.527	1865
457.994	1920
458.461	1919
458.928	1952
459.396	1954
459.863	2026
460.33	2015
460.798	2020
461.265	2027
461.732	2015
462.2	2064
462.668	2052
463.135	2097
463.603	2041
464.07	2086
464.538	2029
465.006	2102
465.474	2051
465.941	2060
466.409	2085
466.877	2037
467.345	2093
467.813	2083
468.281	2110
468.749	2126
469.217	2125
469.685	2140
470.153	2181
470.621	2181
471.09	2190
471.558	2279
472.026	2285
472.494	2358
472.963	2390
473.431	2469
473.9	2502
474.368	2552
474.837	2603
475.305	2635
475.774	2686
476.242	2750
476.711	2743
477.18	2813
477.648	2797
478.117	2830
478.586	2798
479.055	2797
479.524	2823
479.993	2824
480.462	2810
480.93	2818
481.399	2838
481.869	2849
482.338	2829
482.807	2862
483.276	2840
483.745	2856
484.214	2931
484.684	2977
485.153	2967
485.622	2997
486.092	3086
486.561	3010
487.031	3123
487.5	3198
487.97	3210
488.439	3280
488.909	3371
489.378	3490
489.848	3484
490.318	3582
490.787	3735
491.257	3771
491.727	3786
492.197	3896
492.667	3891
493.137	3940
493.607	3963
494.077	3996
494.547	3929
495.017	3927
495.487	4006
495.957	4064
496.427	3993
496.897	4006
497.368	4058
497.838	4012
498.308	4071
498.779	4096
499.249	4107
499.719	4159
500.19	4191
500.66	4203
501.131	4221
501.602	4334
502.072	4344
502.543	4383
503.014	4546
503.484	4530
503.955	4660
504.426	4812
504.897	4853
505.368	4943
505.838	4987
506.309	5112
506.78	5297
507.251	5375
507.722	5460
508.194	5618
508.665	5698
509.136	5636
509.607	5796
510.078	5894
510.549	5932
511.021	6079
511.492	6084
511.964	6175
512.435	6260
512.906	6199
513.378	6279
513.849	6376
514.321	6365
514.793	6449
515.264	6526
515.736	6568
516.208	6677
516.679	6733
517.151	6774
517.623	6804
518.095	6923
518.567	7015
519.038	7156
519.51	7113
519.982	7234
520.454	7330
520.927	7417
521.399	7474
521.871	7535
522.343	7578
522.815	7660
523.287	7624
523.76	7671
524.232	7822
524.704	7838
525.177	7710
525.649	7808
526.122	7921
526.594	7720
527.067	7873
527.539	7951
528.012	7905
528.484	7898
528.957	7943
529.43	7959
529.903	7925
530.375	8170
530.848	7960
531.321	8069
531.794	8068
532.267	8205
532.74	8078
533.213	8097
533.686	8226
534.159	8195
534.632	8368
535.105	8360
535.578	8515
536.051	8489
536.525	8509
536.998	8550
537.471	8738
537.945	8597
538.418	8715
538.891	8784
539.365	8892
539.838	8936
540.312	8936
540.786	9039
541.259	9004
541.733	9054
542.206	9020
542.68	8919
543.154	8927
543.628	8925
544.101	9138
544.575	9081
545.049	8836
545.523	8961
545.997	8929
546.471	9051
546.945	8997
547.419	9134
547.893	8780
548.367	8940
548.842	8869
549.316	8917
549.79	8956
550.264	8875
550.739	8958
551.213	8913
551.687	8931
552.162	9088
552.636	9039
553.111	8992
553.585	9146
554.06	9013
554.534	9246
555.009	9187
555.484	9284
555.958	9366
556.433	9416
556.908	9538
557.383	9406
557.858	9599
558.333	9637
558.807	9607
559.282	9663
559.757	9932
560.232	9993
560.708	9822
561.183	9761
561.658	9845
562.133	9845
562.608	9805
563.083	10058
563.559	9771
564.034	9836
564.509	9896
564.985	9919
565.46	9722
565.936	9832
566.411	9856
566.887	9782
567.362	9869
567.838	9807
568.313	9924
568.789	9863
569.265	9860
569.74	9899
570.216	9808
570.692	10007
571.168	10029
571.644	9988
572.12	9950
572.596	10008
573.071	10038
573.547	10283
574.024	10283
574.5	10350
574.976	10451
575.452	10672
575.928	10750
576.404	10811
576.881	11166
577.357	10967
577.833	10982
578.31	11254
578.786	11384
579.262	11619
579.739	11500
580.215	11746
580.692	11665
581.169	11567
581.645	11595
582.122	11887
582.598	11844
583.075	11828
583.552	11947
584.029	11974
584.506	11923
584.982	11797
585.459	11987
585.936	11861
586.413	12025
586.89	12217
587.367	12074
587.844	12256
588.321	12164
588.799	12191
589.276	11993
589.753	12078
590.23	12173
590.707	12224
591.185	12249
591.662	12182
592.139	12273
592.617	12444
593.094	12442
593.572	12485
594.049	12550
594.527	12639
595.004	12689
595.482	12970
595.96	12832
596.437	12783
596.915	13108
597.393	13063
597.871	13385
598.349	13191
598.826	13376
599.304	13378
599.782	13680
600.26	13564
600.738	13779
601.216	13622
601.694	13738
602.173	13894
602.651	13990
603.129	13803
603.607	13883
604.085	13963
604.564	13944
605.042	13878
605.52	13718
605.999	14050
606.477	13896
606.956	13999
607.434	14052
607.913	14105
608.391	14045
608.87	14021
609.348	13907
609.827	13968
610.306	13957
610.785	13961
611.263	14046
611.742	14044
612.221	13872
612.7	13948
613.179	13955
613.658	13803
614.137	14086
614.616	14227
615.095	13938
615.574	14018
616.053	14135
616.532	14115
617.011	14199
617.491	14245
617.97	14207
618.449	14306
618.928	14413
619.408	14304
619.887	14395
620.367	14458
620.846	14633
621.326	14591
621.805	14885
622.285	14882
622.764	14884
623.244	14879
623.724	14879
624.203	14880
624.683	14640
625.163	14880
625.643	14881
626.123	14882
626.602	14877
627.082	14881
627.562	14880
628.042	14886
628.522	14882
629.002	14883
629.482	14881
629.963	14878
630.443	14882
630.923	14887
631.403	14876
631.883	14882
632.364	14882
632.844	14880
633.324	14884
633.805	14882
634.285	14879
634.766	14667
635.246	14881
635.727	14880
636.207	14877
636.688	14877
637.168	14658
637.649	14566
638.13	14498
638.611	14590
639.091	14650
639.572	14601
640.053	14515
640.534	14607
641.015	14552
641.496	14361
641.977	14601
642.458	14504
642.939	14527
643.42	14547
643.901	14584
644.382	14878
644.863	14878
645.345	14884
645.826	14879
646.307	14637
646.788	14889
647.27	14621
647.751	14880
648.233	14880
648.714	14586
649.196	14875
649.677	14881
650.159	14882
650.64	14679
651.122	14882
651.603	14888
652.085	14882
652.567	14879
653.049	14882
653.53	14882
654.012	14881
654.494	14678
654.976	14880
655.458	14883
655.94	14883
656.422	14880
656.904	14881
657.386	14621
657.868	14600
658.35	14481
658.833	14593
659.315	14610
659.797	14430
660.279	14450
660.762	14557
661.244	14460
661.726	14306
662.209	14272
662.691	14179
663.174	13895
663.656	14014
664.139	14087
664.621	14036
665.104	13946
665.587	14055
666.069	14086
666.552	14050
667.035	13916
667.517	13927
668	14009
668.483	13964
668.966	13829
669.449	13770
669.932	13785
670.415	13946
670.898	13846
671.381	13912
671.864	13970
672.347	13890
672.83	13928
673.313	13950
673.797	13898
674.28	14100
674.763	14118
675.247	14186
675.73	14186
676.213	14293
676.697	14343
677.18	14272
677.664	14247
678.147	14250
678.631	14300
679.114	14436
679.598	14458
680.082	14500
680.565	14422
681.049	14348
681.533	14385
682.017	14569
682.5	14569
682.984	14615
683.468	14557
683.952	14277
684.436	14473
684.92	14324
685.404	14424
685.888	14586
686.372	14554
686.856	14579
687.341	14686
687.825	14466
688.309	14460
688.793	14388
689.278	14206
689.762	14369
690.246	14341
690.731	14439
691.215	14486
691.7	14137
692.184	14267
692.669	14233
693.153	14358
693.638	14211
694.122	14157
694.607	14204
695.092	14059
695.577	14219
696.061	13999
696.546	13981
697.031	13946
697.516	14063
698.001	14087
698.486	14024
698.971	14145
699.456	13860
699.941	13826
700.426	13810
700.911	13886
701.396	13743
701.881	13811
702.366	13766
702.852	13778
703.337	13894
703.822	13862
704.308	13825
704.793	13867
705.278	13876
705.764	13927
706.249	13865
706.735	13840
707.22	13943
707.706	13687
708.191	13839
708.677	13863
709.163	13805
709.648	13904
710.134	14045
710.62	13871
711.106	13840
711.592	13977
712.077	13983
712.563	13753
713.049	13739
713.535	13911
714.021	13822
714.507	13790
714.993	13661
715.479	13814
715.966	13621
716.452	13605
716.938	13590
717.424	13201
717.91	13450
718.397	13364
718.883	13317
719.369	13365
719.856	13253
720.342	13397
720.829	13222
721.315	13273
721.802	13219
722.288	13320
722.775	12876
723.262	12536
723.748	13054
724.235	12966
724.722	13120
725.208	12903
725.695	12916
726.182	12893
726.669	12739
727.156	12775
727.643	12638
728.13	12668
728.617	12592
729.104	12639
729.591	12543
730.078	12622
730.565	12656
731.052	12489
731.539	12497
732.027	12404
732.514	12259
733.001	12347
733.488	12201
733.976	12139
734.463	12112
734.951	12120
735.438	12271
735.926	12130
736.413	12183
736.901	12151
737.388	12320
737.876	12280
738.364	12150
738.851	12112
739.339	12006
739.827	12063
740.314	11711
740.802	11826
741.29	11923
741.778	11836
742.266	11876
742.754	11912
743.242	12006
743.73	11769
744.218	11696
744.706	11555
745.194	11700
745.682	11647
746.17	11695
746.659	11740
747.147	11474
747.635	11580
748.123	11580
748.612	11472
749.1	11388
749.589	11458
750.077	11351
750.566	11264
751.054	11286
751.543	11282
752.031	11015
752.52	11006
753.008	10801
753.497	10762
753.986	10714
754.474	10655
754.963	10756
755.452	10639
755.941	10610
756.43	10615
756.919	10564
757.408	10517
757.896	10557
758.385	10594
758.875	10505
759.364	10432
759.853	10396
760.342	10263
760.831	10470
761.32	10328
761.809	10131
762.299	10164
762.788	10183
763.277	10163
763.767	10014
764.256	10021
764.745	9884
765.235	10032
765.724	9767
766.214	9848
766.703	9768
767.193	9664
767.683	9704
768.172	9571
768.662	9651
769.152	9559
769.641	9481
770.131	9254
770.621	9406
771.111	9322
771.601	9346
772.09	9272
772.58	9129
773.07	9125
773.56	9176
774.05	9029
774.54	9003
775.031	8953
775.521	8924
776.011	8931
776.501	9023
776.991	8883
777.482	8962
777.972	8719
778.462	8713
778.953	8810
779.443	8728
779.933	8668
780.424	8500
780.914	8528
781.405	8513
781.895	8423
782.386	8413
782.877	8378
783.367	8247
783.858	8195
784.349	8229
784.839	8194
785.33	8223
785.821	8130
786.312	8034
786.803	8067
787.293	8083
787.784	7934
788.275	7813
788.766	7721
789.257	7889
789.748	7743
790.24	7698
790.731	7746
791.222	7645
791.713	7602
792.204	7615
792.696	7389
793.187	7442
793.678	7369
794.169	7203
794.661	7330
795.152	7275
795.644	7223
796.135	7203
796.627	7227
797.118	7108
797.61	7064
798.101	6998
798.593	7086
799.085	6976
799.576	6983
800.068	6852
800.56	6838
801.052	6660
801.544	6613
802.035	6625
802.527	6553
803.019	6522
803.511	6488
804.003	6464
804.495	6526
804.987	6455
805.479	6289
805.971	6323
806.464	6314
806.956	6169
807.448	6171
807.94	6198
808.433	6155
808.925	6132
809.417	6100
809.91	6087
810.402	5938
810.894	5966
811.387	5963
811.879	5832
812.372	5829
812.865	5727
813.357	5703
813.85	5664
814.342	5647
814.835	5653
815.328	5644
815.821	5568
816.313	5584
816.806	5592
817.299	5521
817.792	5562
818.285	5520
818.778	5601
819.271	5594
819.764	5488
820.257	5470
820.75	5458
821.243	5450
821.736	5381
822.229	5422
822.722	5431
823.216	5533
