Data from lamp2bck_Subt4__8__163.txt Node

Date: Fri Apr 04 10:40:30 CEST 2025
User: fys-lab-0081
Spectrometer: S04999
Trigger mode: 0
Resolution mode: 1024 pixels
Integration Time (sec): 1.000000E-1
Scans to average: 1
Nonlinearity correction enabled: false
Boxcar width: 0
Baseline correction enabled: true
XAxis mode: Wavelengths
Number of Pixels in Spectrum: 1024
>>>>>Begin Spectral Data<<<<<
336.42	0
336.877	-1
337.334	2
337.792	5
338.249	3
338.706	7
339.164	4
339.621	0
340.079	0
340.536	0
340.994	1
341.452	4
341.909	-1
342.367	0
342.825	1
343.283	0
343.741	6
344.198	-2
344.656	-1
345.114	5
345.572	-2
346.03	4
346.488	-1
346.947	2
347.405	4
347.863	0
348.321	-1
348.779	-5
349.238	1
349.696	0
350.154	-2
350.613	-2
351.071	1
351.53	-1
351.988	1
352.447	-2
352.905	-4
353.364	-2
353.823	7
354.282	-4
354.74	-3
355.199	3
355.658	-5
356.117	2
356.576	0
357.035	-2
357.494	-3
357.953	-2
358.412	1
358.871	3
359.33	1
359.789	-2
360.249	2
360.708	6
361.167	0
361.626	4
362.086	1
362.545	0
363.005	-2
363.464	3
363.924	-1
364.383	-1
364.843	5
365.303	-3
365.762	3
366.222	8
366.682	0
367.142	-2
367.601	2
368.061	5
368.521	0
368.981	3
369.441	5
369.901	-3
370.361	2
370.821	9
371.282	2
371.742	-6
372.202	1
372.662	0
373.123	1
373.583	-1
374.043	1
374.504	-5
374.964	-2
375.425	2
375.885	5
376.346	4
376.806	0
377.267	1
377.728	-6
378.188	1
378.649	4
379.11	1
379.571	-2
380.032	5
380.493	-1
380.954	6
381.414	1
381.876	0
382.337	-1
382.798	1
383.259	-2
383.72	-2
384.181	3
384.642	1
385.104	0
385.565	2
386.026	3
386.488	3
386.949	2
387.411	0
387.872	0
388.334	2
388.795	1
389.257	4
389.719	0
390.181	5
390.642	5
391.104	7
391.566	3
392.028	0
392.49	2
392.952	2
393.414	0
393.876	1
394.338	6
394.8	1
395.262	3
395.724	2
396.186	2
396.648	3
397.111	3
397.573	3
398.035	-2
398.498	1
398.96	4
399.423	1
399.885	-1
400.348	1
400.81	3
401.273	7
401.736	-1
402.198	2
402.661	6
403.124	7
403.587	1
404.049	0.5
404.512	0
404.975	5
405.438	6
405.901	0
406.364	2
406.827	12
407.29	4
407.754	6
408.217	0
408.68	5
409.143	6
409.607	3
410.07	2
410.533	3
410.997	3
411.46	10
411.924	1
412.387	-3
412.851	5
413.314	6
413.778	7
414.242	3
414.705	6
415.169	3
415.633	7
416.097	6
416.561	6
417.024	6
417.488	6
417.952	10
418.416	2
418.88	9
419.344	1
419.809	7
420.273	11
420.737	7
421.201	5
421.665	0
422.13	5
422.594	7
423.059	8
423.523	3
423.987	4
424.452	8
424.916	4
425.381	4
425.846	9
426.31	6
426.775	4
427.24	2
427.704	5
428.169	9
428.634	13
429.099	5
429.564	7
430.029	5
430.494	6
430.959	7
431.424	8
431.889	10
432.354	6
432.819	5
433.284	10
433.75	7
434.215	6
434.68	9
435.146	9
435.611	13
436.077	10
436.542	11
437.008	5
437.473	9
437.939	8
438.404	11
438.87	11
439.336	5
439.801	8
440.267	8
440.733	7
441.199	11
441.665	8
442.131	11
442.596	14
443.062	16
443.529	11
443.995	9
444.461	15
444.927	14
445.393	13
445.859	13
446.325	13
446.792	17
447.258	14
447.724	17
448.191	14
448.657	16
449.124	16
449.59	18
450.057	14
450.523	15
450.99	16
451.457	21
451.923	22
452.39	14
452.857	21
453.324	19
453.791	21
454.257	22
454.724	20
455.191	12
455.658	17
456.125	20
456.592	18
457.059	15
457.527	12
457.994	19
458.461	18
458.928	19
459.396	20
459.863	22
460.33	20
460.798	25
461.265	18
461.732	15
462.2	22
462.668	19
463.135	20
463.603	20
464.07	27
464.538	25
465.006	26
465.474	17
465.941	21
466.409	23
466.877	18
467.345	21
467.813	22
468.281	21
468.749	20
469.217	27
469.685	26
470.153	17
470.621	22
471.09	27
471.558	27
472.026	25
472.494	23
472.963	23
473.431	28
473.9	29
474.368	33
474.837	30
475.305	29
475.774	33
476.242	29
476.711	32
477.18	35
477.648	32
478.117	33
478.586	30
479.055	34
479.524	28
479.993	31
480.462	36
480.93	36
481.399	32
481.869	35
482.338	28
482.807	37
483.276	32
483.745	36
484.214	35
484.684	33
485.153	34
485.622	35
486.092	37
486.561	32
487.031	38
487.5	37
487.97	36
488.439	35
488.909	37
489.378	40
489.848	37
490.318	36
490.787	39
491.257	44
491.727	45
492.197	44
492.667	44
493.137	49
493.607	51
494.077	46
494.547	45
495.017	41
495.487	51
495.957	49
496.427	46
496.897	45
497.368	49
497.838	49
498.308	43
498.779	49
499.249	49
499.719	46
500.19	45
500.66	53
501.131	52
501.602	55
502.072	55
502.543	48
503.014	45
503.484	54
503.955	59
504.426	62
504.897	52
505.368	54
505.838	55
506.309	60
506.78	62
507.251	60
507.722	69
508.194	67
508.665	65
509.136	67
509.607	75
510.078	68
510.549	76
511.021	73
511.492	72
511.964	75
512.435	77
512.906	80
513.378	79
513.849	77
514.321	83
514.793	81
515.264	80
515.736	82
516.208	85
516.679	79
517.151	89
517.623	86
518.095	92
518.567	91
519.038	85
519.51	91
519.982	97
520.454	93
520.927	92
521.399	95
521.871	93
522.343	94
522.815	96
523.287	95
523.76	98
524.232	103
524.704	100
525.177	100
525.649	96
526.122	97
526.594	100
527.067	101
527.539	99
528.012	106
528.484	102
528.957	102
529.43	103
529.903	101
530.375	109
530.848	102
531.321	105
531.794	102
532.267	104
532.74	107
533.213	108
533.686	113
534.159	109
534.632	112
535.105	114
535.578	113
536.051	115
536.525	112
536.998	115
537.471	115
537.945	116
538.418	117
538.891	119
539.365	119
539.838	121
540.312	130
540.786	128
541.259	124
541.733	127
542.206	126
542.68	125
543.154	120
543.628	119
544.101	130
544.575	123
545.049	121
545.523	130
545.997	129
546.471	127
546.945	125
547.419	130
547.893	119
548.367	126
548.842	128
549.316	124
549.79	128
550.264	123
550.739	128
551.213	132
551.687	129
552.162	128
552.636	130
553.111	130
553.585	130
554.06	134
554.534	134
555.009	135
555.484	138
555.958	134
556.433	136
556.908	141
557.383	135
557.858	141
558.333	144
558.807	140
559.282	140
559.757	143
560.232	153
560.708	145
561.183	147
561.658	147
562.133	148
562.608	145
563.083	152
563.559	145
564.034	151
564.509	146
564.985	145
565.46	146
565.936	148
566.411	151
566.887	146
567.362	154
567.838	147
568.313	152
568.789	153
569.265	150
569.74	152
570.216	153
570.692	153
571.168	149
571.644	157
572.12	149
572.596	157
573.071	152
573.547	155
574.024	158
574.5	167
574.976	159
575.452	164
575.928	166
576.404	170
576.881	175
577.357	169
577.833	169
578.31	175
578.786	180
579.262	184
579.739	176
580.215	184
580.692	180
581.169	187
581.645	185
582.122	190
582.598	192
583.075	189
583.552	194
584.029	188
584.506	187
584.982	193
585.459	198
585.936	194
586.413	198
586.89	194
587.367	194
587.844	204
588.321	196
588.799	197
589.276	198
589.753	199
590.23	204
590.707	202
591.185	202
591.662	202
592.139	206
592.617	208
593.094	206
593.572	208
594.049	207
594.527	221
595.004	213
595.482	222
595.96	218
596.437	217
596.915	229
597.393	225
597.871	226
598.349	221
598.826	228
599.304	233
599.782	239
600.26	232
600.738	237
601.216	234
601.694	244
602.173	241
602.651	246
603.129	239
603.607	242
604.085	248
604.564	245
605.042	250
605.52	242
605.999	248
606.477	248
606.956	245
607.434	248.5
607.913	252
608.391	248
608.87	251
609.348	244
609.827	249
610.306	255
610.785	252
611.263	251
611.742	252
612.221	248
612.7	249
613.179	249
613.658	249
614.137	260
614.616	255
615.095	254
615.574	255
616.053	261
616.532	257
617.011	260
617.491	253
617.97	256
618.449	261
618.928	262
619.408	270
619.887	273
620.367	272
620.846	267
621.326	270
621.805	272
622.285	267
622.764	277
623.244	276
623.724	284
624.203	280
624.683	280
625.163	285
625.643	278
626.123	281
626.602	291
627.082	283
627.562	280
628.042	288
628.522	290
629.002	293
629.482	294
629.963	291
630.443	282
630.923	288
631.403	289
631.883	287
632.364	289
632.844	290
633.324	290
633.805	293
634.285	289
634.766	289
635.246	286
635.727	287
636.207	286
636.688	286
637.168	291
637.649	285
638.13	282
638.611	287
639.091	295
639.572	285
640.053	289
640.534	292
641.015	293
641.496	285
641.977	287
642.458	282
642.939	285
643.42	289
643.901	291
644.382	285
644.863	296
645.345	292
645.826	291
646.307	295
646.788	298
647.27	293
647.751	300
648.233	302
648.714	294
649.196	297
649.677	296
650.159	300
650.64	297
651.122	304
651.603	299
652.085	303
652.567	304
653.049	299
653.53	299
654.012	311
654.494	296
654.976	304
655.458	304
655.94	310
656.422	309
656.904	304
657.386	298
657.868	300
658.35	296
658.833	306
659.315	297
659.797	298
660.279	298
660.762	306
661.244	300
661.726	297
662.209	301
662.691	296
663.174	295
663.656	295
664.139	293
664.621	298
665.104	294
665.587	302
666.069	292
666.552	293
667.035	291
667.517	291
668	295
668.483	303
668.966	297
669.449	293
669.932	297
670.415	296
670.898	297
671.381	297
671.864	292
672.347	295
672.83	298
673.313	300
673.797	299
674.28	301
674.763	301
675.247	304
675.73	305
676.213	304
676.697	314
677.18	312
677.664	312
678.147	315
678.631	311
679.114	317
679.598	312
680.082	316
680.565	315
681.049	313
681.533	310
682.017	318
682.5	324
682.984	328
683.468	321
683.952	316
684.436	316
684.92	320
685.404	320
685.888	320
686.372	325
686.856	322
687.341	327
687.825	323
688.309	324
688.793	319
689.278	317
689.762	319
690.246	324
690.731	320
691.215	324
691.7	314
692.184	318
692.669	323
693.153	321
693.638	319
694.122	318
694.607	317
695.092	322
695.577	322
696.061	321
696.546	310
697.031	316
697.516	320
698.001	322
698.486	313
698.971	322
699.456	318
699.941	317
700.426	319
700.911	318
701.396	315
701.881	315
702.366	316
702.852	317
703.337	316
703.822	318
704.308	310
704.793	315
705.278	312
705.764	318
706.249	317
706.735	318
707.22	325
707.706	316
708.191	318
708.677	317
709.163	323
709.648	323
710.134	321
710.62	323
711.106	321
711.592	319
712.077	330
712.563	318
713.049	315
713.535	323
714.021	322
714.507	321
714.993	321
715.479	328
715.966	319
716.452	320
716.938	325
717.424	314
717.91	320
718.397	313
718.883	319
719.369	314
719.856	315
720.342	317
720.829	308
721.315	314
721.802	304
722.288	318
722.775	304
723.262	304
723.748	312
724.235	305
724.722	308
725.208	304
725.695	311
726.182	310
726.669	309
727.156	304
727.643	305
728.13	302
728.617	301
729.104	299
729.591	299
730.078	304
730.565	302
731.052	303
731.539	303
732.027	302
732.514	293
733.001	299
733.488	298
733.976	293
734.463	297
734.951	297
735.438	298
735.926	291
736.413	298
736.901	290
737.388	295
737.876	299
738.364	294
738.851	293
739.339	291
739.827	298
740.314	292
740.802	286
741.29	291
741.778	291
742.266	294
742.754	293
743.242	293
743.73	285
744.218	287
744.706	284
745.194	290
745.682	288
746.17	292
746.659	291
747.147	288
747.635	287
748.123	288
748.612	286
749.1	283
749.589	289
750.077	283
750.566	281
751.054	287
751.543	282
752.031	277
752.52	278
753.008	273
753.497	270
753.986	275
754.474	275
754.963	276
755.452	276
755.941	271
756.43	269
756.919	270
757.408	269
757.896	273
758.385	275
758.875	264
759.364	260
759.853	258
760.342	257
760.831	263
761.32	264
761.809	260
762.299	259
762.788	259
763.277	265
763.767	260
764.256	254
764.745	255
765.235	254
765.724	247
766.214	259
766.703	256
767.193	254
767.683	257
768.172	248
768.662	248
769.152	250
769.641	250
770.131	248
770.621	242
771.111	243
771.601	236
772.09	240
772.58	240
773.07	237
773.56	247
774.05	238
774.54	233
775.031	231
775.521	236
776.011	237
776.501	232
776.991	234
777.482	240
777.972	232
778.462	228
778.953	237
779.443	230
779.933	228
780.424	224
780.914	229
781.405	233
781.895	228
782.386	226
782.877	224
783.367	220
783.858	225
784.349	221
784.839	216
785.33	224
785.821	213
786.312	217
786.803	222
787.293	222
787.784	213
788.275	210
788.766	211
789.257	221
789.748	211
790.24	215
790.731	209
791.222	212
791.713	204
792.204	208
792.696	203
793.187	208
793.678	203
794.169	206
794.661	202
795.152	203
795.644	203
796.135	210
796.627	212
797.118	195
797.61	198
798.101	198
798.593	200
799.085	203
799.576	194
800.068	194
800.56	192
801.052	193
801.544	190
802.035	187
802.527	186
803.019	192
803.511	190
804.003	183
804.495	182
804.987	177
805.479	178
805.971	176
806.464	186
806.956	180
807.448	177
807.94	178
808.433	176
808.925	177
809.417	180
809.91	175
810.402	168
810.894	172
811.387	178
811.879	176
812.372	170
812.865	170
813.357	162
813.85	171
814.342	166
814.835	172
815.328	170
815.821	168
816.313	167
816.806	169
817.299	173
817.792	173
818.285	164
818.778	168
819.271	174
819.764	168
820.257	167
820.75	168
821.243	167
821.736	166
822.229	168
822.722	167
823.216	170
