Data from lamp2bck_Subt4__11__166.txt Node

Date: Fri Apr 04 10:40:30 CEST 2025
User: fys-lab-0081
Spectrometer: S04999
Trigger mode: 0
Resolution mode: 1024 pixels
Integration Time (sec): 1.000000E-1
Scans to average: 1
Nonlinearity correction enabled: false
Boxcar width: 0
Baseline correction enabled: true
XAxis mode: Wavelengths
Number of Pixels in Spectrum: 1024
>>>>>Begin Spectral Data<<<<<
336.42	0
336.877	0
337.334	2
337.792	3
338.249	1
338.706	5
339.164	3
339.621	-1
340.079	4
340.536	1
340.994	-3
341.452	4
341.909	5
342.367	2
342.825	3
343.283	2
343.741	4
344.198	-5
344.656	0
345.114	5
345.572	-4
346.03	1
346.488	0
346.947	0
347.405	3
347.863	1
348.321	-5
348.779	1
349.238	1
349.696	3
350.154	-1
350.613	0
351.071	2
351.53	-5
351.988	-3
352.447	0
352.905	-2
353.364	2
353.823	5
354.282	-2
354.74	-1
355.199	2
355.658	-5
356.117	0
356.576	-4
357.035	0
357.494	0
357.953	-4
358.412	-3
358.871	0
359.33	2
359.789	-1
360.249	0
360.708	3
361.167	-2
361.626	1
362.086	-1
362.545	-2
363.005	-1
363.464	0
363.924	-1
364.383	-2
364.843	1
365.303	0
365.762	-1
366.222	2
366.682	-1
367.142	1
367.601	4
368.061	2
368.521	5
368.981	4
369.441	1
369.901	0
370.361	0
370.821	6
371.282	1
371.742	-6
372.202	-3
372.662	3
373.123	3
373.583	3
374.043	1
374.504	1
374.964	-2
375.425	3
375.885	3
376.346	1
376.806	-4
377.267	3
377.728	-5
378.188	1
378.649	3
379.11	0
379.571	0
380.032	-2
380.493	2
380.954	2
381.414	1
381.876	1
382.337	4
382.798	-2
383.259	2
383.72	0
384.181	4
384.642	-2
385.104	2
385.565	5
386.026	0
386.488	3
386.949	-1
387.411	6
387.872	3
388.334	1
388.795	0
389.257	3
389.719	2
390.181	2
390.642	4
391.104	-2
391.566	1
392.028	2
392.49	3
392.952	-1
393.414	-1
393.876	3
394.338	4
394.8	2
395.262	-1
395.724	4
396.186	1
396.648	4
397.111	2
397.573	1
398.035	1
398.498	4
398.96	4
399.423	5
399.885	-2
400.348	-1
400.81	2
401.273	0
401.736	-5
402.198	4
402.661	7
403.124	5
403.587	5
404.049	5
404.512	5
404.975	7
405.438	2
405.901	2
406.364	-2
406.827	10
407.29	7
407.754	7
408.217	-2
408.68	3
409.143	4
409.607	-1
410.07	0
410.533	6
410.997	3
411.46	6
411.924	1
412.387	-1
412.851	2
413.314	5
413.778	4
414.242	1
414.705	4
415.169	0
415.633	8
416.097	9
416.561	7
417.024	4
417.488	9
417.952	8
418.416	4
418.88	11
419.344	3
419.809	6
420.273	11
420.737	6
421.201	5
421.665	3
422.13	8
422.594	8
423.059	5
423.523	0
423.987	4
424.452	13
424.916	7
425.381	1
425.846	4
426.31	4
426.775	8
427.24	5
427.704	7
428.169	6
428.634	9
429.099	3
429.564	5
430.029	7
430.494	8
430.959	6
431.424	12
431.889	9
432.354	10
432.819	5
433.284	7
433.75	11
434.215	11
434.68	10
435.146	7
435.611	12
436.077	10
436.542	12
437.008	9
437.473	8
437.939	6
438.404	12
438.87	8
439.336	8
439.801	11
440.267	7
440.733	9
441.199	12
441.665	14
442.131	12
442.596	7
443.062	14
443.529	11
443.995	9
444.461	12
444.927	15
445.393	14
445.859	11
446.325	15
446.792	15
447.258	12
447.724	18
448.191	16
448.657	17
449.124	16
449.59	14
450.057	11
450.523	19
450.99	14
451.457	20
451.923	21
452.39	17
452.857	19
453.324	17
453.791	21
454.257	22
454.724	20
455.191	14
455.658	15
456.125	20
456.592	21
457.059	19
457.527	15
457.994	21
458.461	23
458.928	20
459.396	21
459.863	23
460.33	22
460.798	22
461.265	22
461.732	18
462.2	19
462.668	25
463.135	23
463.603	18
464.07	25
464.538	28
465.006	27
465.474	20
465.941	23
466.409	25
466.877	18
467.345	19
467.813	22
468.281	18
468.749	24
469.217	25
469.685	27
470.153	20
470.621	21
471.09	29
471.558	26
472.026	26
472.494	24
472.963	24
473.431	28
473.9	26
474.368	31
474.837	30
475.305	32
475.774	33
476.242	34
476.711	36
477.18	36
477.648	26
478.117	34
478.586	33
479.055	38
479.524	31
479.993	29
480.462	34
480.93	39
481.399	30
481.869	32
482.338	29
482.807	34
483.276	32
483.745	41
484.214	35
484.684	30
485.153	36
485.622	36
486.092	39
486.561	31
487.031	39
487.5	39
487.97	40
488.439	34
488.909	35
489.378	45
489.848	45
490.318	41
490.787	40
491.257	44
491.727	45
492.197	49
492.667	47
493.137	52
493.607	49
494.077	46
494.547	47
495.017	42
495.487	47
495.957	49
496.427	49
496.897	48
497.368	49
497.838	47
498.308	50
498.779	55
499.249	53
499.719	46
500.19	49
500.66	57
501.131	53
501.602	56
502.072	48
502.543	50
503.014	56
503.484	55
503.955	55
504.426	60
504.897	56
505.368	59
505.838	66
506.309	64
506.78	67
507.251	63
507.722	73
508.194	68
508.665	66
509.136	70
509.607	83
510.078	70
510.549	76
511.021	78
511.492	79
511.964	77
512.435	76
512.906	79
513.378	83
513.849	84
514.321	83
514.793	79
515.264	80
515.736	84
516.208	91
516.679	82
517.151	89
517.623	83
518.095	94
518.567	93
519.038	88
519.51	94
519.982	94
520.454	96
520.927	92
521.399	99
521.871	96
522.343	98
522.815	104
523.287	99
523.76	101
524.232	104
524.704	110
525.177	105
525.649	104
526.122	105
526.594	104
527.067	105
527.539	105
528.012	106
528.484	109
528.957	110
529.43	110
529.903	107
530.375	114
530.848	105
531.321	111
531.794	108
532.267	111
532.74	109
533.213	108
533.686	117
534.159	114
534.632	116
535.105	120
535.578	114
536.051	119
536.525	115
536.998	119
537.471	125
537.945	122
538.418	123
538.891	124
539.365	125
539.838	127
540.312	130
540.786	132
541.259	125
541.733	132
542.206	129
542.68	122
543.154	130
543.628	126
544.101	132
544.575	128
545.049	129
545.523	133
545.997	130
546.471	135
546.945	130
547.419	134
547.893	130
548.367	133
548.842	131
549.316	126
549.79	131
550.264	135
550.739	134
551.213	132
551.687	127
552.162	136
552.636	136
553.111	135
553.585	134
554.06	135
554.534	142
555.009	142
555.484	139
555.958	139
556.433	140
556.908	146
557.383	140
557.858	149
558.333	151
558.807	145
559.282	146
559.757	148
560.232	150
560.708	148
561.183	151
561.658	153
562.133	153
562.608	151
563.083	158
563.559	148
564.034	154
564.509	152
564.985	157
565.46	155
565.936	154
566.411	158
566.887	159
567.362	159
567.838	152
568.313	158
568.789	156
569.265	160
569.74	157
570.216	159
570.692	157
571.168	156
571.644	163
572.12	159
572.596	165
573.071	161
573.547	163
574.024	162
574.5	169
574.976	168
575.452	169
575.928	176
576.404	173
576.881	179
577.357	179
577.833	178
578.31	184
578.786	188
579.262	193
579.739	186
580.215	196
580.692	195
581.169	194
581.645	193
582.122	199
582.598	199
583.075	197
583.552	200
584.029	197
584.506	201
584.982	197
585.459	207
585.936	198
586.413	201
586.89	207
587.367	205
587.844	209
588.321	207
588.799	208
589.276	208
589.753	212
590.23	213
590.707	211
591.185	213
591.662	209
592.139	215
592.617	216
593.094	212
593.572	222
594.049	218
594.527	227
595.004	223
595.482	231
595.96	223
596.437	228
596.915	232
597.393	227
597.871	231
598.349	231
598.826	235
599.304	239
599.782	250
600.26	239
600.738	249
601.216	247
601.694	250
602.173	251
602.651	252
603.129	247
603.607	254
604.085	263
604.564	252
605.042	257
605.52	250
605.999	258
606.477	263
606.956	252
607.434	254
607.913	256
608.391	258
608.87	264
609.348	253
609.827	260
610.306	256
610.785	264
611.263	264
611.742	263
612.221	262
612.7	259
613.179	262
613.658	258
614.137	269
614.616	270
615.095	266
615.574	266
616.053	263
616.532	269
617.011	269
617.491	266
617.97	267
618.449	269
618.928	274
619.408	276
619.887	278
620.367	274
620.846	275
621.326	281
621.805	278
622.285	276
622.764	282
623.244	287
623.724	290
624.203	293
624.683	285
625.163	291
625.643	292
626.123	293
626.602	300
627.082	293
627.562	289
628.042	301
628.522	296
629.002	302
629.482	308
629.963	298
630.443	294
630.923	294
631.403	298
631.883	296
632.364	301
632.844	301
633.324	295
633.805	300
634.285	300
634.766	305
635.246	296
635.727	298
636.207	296
636.688	296
637.168	301
637.649	293
638.13	294
638.611	295
639.091	295
639.572	302
640.053	296
640.534	301
641.015	305
641.496	295
641.977	295
642.458	293
642.939	303
643.42	299
643.901	300
644.382	303
644.863	297
645.345	303
645.826	301
646.307	305
646.788	307
647.27	303
647.751	307
648.233	311
648.714	302
649.196	311
649.677	311
650.159	310
650.64	310
651.122	314
651.603	311
652.085	309
652.567	315
653.049	308
653.53	313
654.012	322
654.494	310
654.976	315
655.458	315
655.94	313
656.422	313
656.904	315
657.386	313
657.868	314
658.35	309
658.833	314
659.315	312
659.797	308
660.279	310
660.762	319
661.244	309
661.726	307
662.209	309
662.691	309
663.174	307
663.656	305
664.139	304
664.621	307
665.104	299
665.587	307
666.069	302
666.552	307
667.035	301
667.517	308
668	306
668.483	307
668.966	307
669.449	300
669.932	309
670.415	312
670.898	305
671.381	304
671.864	303
672.347	310
672.83	309
673.313	312
673.797	308
674.28	316
674.763	317
675.247	309
675.73	311
676.213	311
676.697	324
677.18	321
677.664	321
678.147	326
678.631	323
679.114	325
679.598	325
680.082	325
680.565	328
681.049	324
681.533	321
682.017	329
682.5	328
682.984	335
683.468	332
683.952	324
684.436	324
684.92	331
685.404	326
685.888	331
686.372	333
686.856	334
687.341	337
687.825	330
688.309	336
688.793	335
689.278	329
689.762	329
690.246	333
690.731	331
691.215	334
691.7	321
692.184	324
692.669	328
693.153	332
693.638	331
694.122	332
694.607	330
695.092	330
695.577	334
696.061	330
696.546	322
697.031	325
697.516	332
698.001	332
698.486	327
698.971	330
699.456	324
699.941	329
700.426	330
700.911	330
701.396	322
701.881	322
702.366	324
702.852	327
703.337	326
703.822	330
704.308	321
704.793	325
705.278	328
705.764	329
706.249	326
706.735	327
707.22	334
707.706	330
708.191	331
708.677	330
709.163	330
709.648	334
710.134	339
710.62	334
711.106	333
711.592	333
712.077	337
712.563	332
713.049	329
713.535	338
714.021	333
714.507	332
714.993	331
715.479	334
715.966	327
716.452	332
716.938	332
717.424	325
717.91	329
718.397	322
718.883	321
719.369	327
719.856	323
720.342	326
720.829	317
721.315	326
721.802	318
722.288	327
722.775	314
723.262	310
723.748	319
724.235	323
724.722	322
725.208	318
725.695	319
726.182	321
726.669	316
727.156	314
727.643	314
728.13	311
728.617	313
729.104	307
729.591	306
730.078	314
730.565	313
731.052	314
731.539	309
732.027	310
732.514	306
733.001	304
733.488	308
733.976	297
734.463	307
734.951	308
735.438	305
735.926	304
736.413	310
736.901	301
737.388	304
737.876	310
738.364	302
738.851	299
739.339	303
739.827	311
740.314	300
740.802	297
741.29	305
741.778	299
742.266	302
742.754	298
743.242	301
743.73	297
744.218	300
744.706	290
745.194	305
745.682	297
746.17	304
746.659	301
747.147	293
747.635	301
748.123	303
748.612	293
749.1	289
749.589	293
750.077	295
750.566	289
751.054	292
751.543	291
752.031	294
752.52	288
753.008	282
753.497	276
753.986	282
754.474	286
754.963	289
755.452	285
755.941	279
756.43	277
756.919	279
757.408	275
757.896	273
758.385	282
758.875	275
759.364	278
759.853	263
760.342	266
760.831	269
761.32	270
761.809	267
762.299	267
762.788	268
763.277	271
763.767	270
764.256	262
764.745	254
765.235	266
765.724	255
766.214	264
766.703	254
767.193	261
767.683	266
768.172	259
768.662	249
769.152	255
769.641	261
770.131	254
770.621	249
771.111	245
771.601	248
772.09	251
772.58	249
773.07	244
773.56	252
774.05	240
774.54	242
775.031	244
775.521	246
776.011	244
776.501	244
776.991	248
777.482	247
777.972	236
778.462	232
778.953	240
779.443	235
779.933	234
780.424	237
780.914	238
781.405	241
781.895	234
782.386	234
782.877	231
783.367	227
783.858	233
784.349	225
784.839	222
785.33	229
785.821	230
786.312	226
786.803	219
787.293	222
787.784	222
788.275	219
788.766	221
789.257	229
789.748	215
790.24	219
790.731	216
791.222	213
791.713	212
792.204	214
792.696	212
793.187	213
793.678	206
794.169	210
794.661	209
795.152	212
795.644	206
796.135	214
796.627	211
797.118	203
797.61	210
798.101	201
798.593	210
799.085	208
799.576	195
800.068	200
800.56	195
801.052	197
801.544	194
802.035	191
802.527	191
803.019	192
803.511	194
804.003	187
804.495	190
804.987	190
805.479	186
805.971	184
806.464	190
806.956	184
807.448	180
807.94	182
808.433	179
808.925	184
809.417	181
809.91	182
810.402	177
810.894	180
811.387	182
811.879	180
812.372	177
812.865	176
813.357	162
813.85	171
814.342	170
814.835	167
815.328	176
815.821	172
816.313	169
816.806	175
817.299	175
817.792	174
818.285	169
818.778	179
819.271	175
819.764	177
820.257	171
820.75	174
821.243	169
821.736	168
822.229	170
822.722	166
823.216	173
