Data from lamp2bck_Subt4__7__162.txt Node

Date: Fri Apr 04 10:40:30 CEST 2025
User: fys-lab-0081
Spectrometer: S04999
Trigger mode: 0
Resolution mode: 1024 pixels
Integration Time (sec): 1.000000E-1
Scans to average: 1
Nonlinearity correction enabled: false
Boxcar width: 0
Baseline correction enabled: true
XAxis mode: Wavelengths
Number of Pixels in Spectrum: 1024
>>>>>Begin Spectral Data<<<<<
336.42	-6
336.877	-5
337.334	3
337.792	7
338.249	0
338.706	2
339.164	2
339.621	-5
340.079	1
340.536	0
340.994	-1
341.452	3
341.909	3
342.367	2
342.825	3
343.283	-3
343.741	4
344.198	-4
344.656	2
345.114	-1
345.572	0
346.03	-2
346.488	0
346.947	-2
347.405	3
347.863	3
348.321	2
348.779	0
349.238	-1
349.696	2
350.154	-5
350.613	-2
351.071	-1
351.53	-1
351.988	-3
352.447	-3
352.905	-1
353.364	0
353.823	2
354.282	-5
354.74	-1
355.199	-4
355.658	-6
356.117	1
356.576	-2
357.035	0
357.494	3
357.953	-5
358.412	-2
358.871	1
359.33	2
359.789	-3
360.249	-2
360.708	5
361.167	1
361.626	3
362.086	2
362.545	-2
363.005	-2
363.464	5
363.924	-1
364.383	1
364.843	1
365.303	-3
365.762	2
366.222	6
366.682	-5
367.142	-4
367.601	2
368.061	3
368.521	-1
368.981	3
369.441	2
369.901	0
370.361	4
370.821	3
371.282	-2
371.742	-1
372.202	0
372.662	7
373.123	2
373.583	-2
374.043	4
374.504	3
374.964	-3
375.425	-4
375.885	2
376.346	6
376.806	-3
377.267	1
377.728	-2
378.188	-3
378.649	2
379.11	2
379.571	1
380.032	-5
380.493	0
380.954	4
381.414	-1
381.876	4
382.337	4
382.798	1
383.259	4
383.72	0
384.181	2
384.642	-6
385.104	1
385.565	1
386.026	3
386.488	4
386.949	-3
387.411	6
387.872	1
388.334	5
388.795	1
389.257	1
389.719	4
390.181	0
390.642	0
391.104	6
391.566	0
392.028	2
392.49	1
392.952	5
393.414	-2
393.876	2
394.338	3
394.8	-3
395.262	0
395.724	1
396.186	2
396.648	2
397.111	2
397.573	1
398.035	1
398.498	5
398.96	4
399.423	2
399.885	-1
400.348	4
400.81	2
401.273	3
401.736	0
402.198	5
402.661	6
403.124	8
403.587	3
404.049	4
404.512	5
404.975	3
405.438	8
405.901	3
406.364	-2
406.827	13
407.29	2
407.754	7
408.217	2
408.68	1
409.143	7
409.607	0
410.07	-2
410.533	4
410.997	2
411.46	6
411.924	2
412.387	-2
412.851	3
413.314	6
413.778	5
414.242	6
414.705	6
415.169	4
415.633	6
416.097	4
416.561	5
417.024	5
417.488	4
417.952	6
418.416	4
418.88	10
419.344	5
419.809	4
420.273	8
420.737	2
421.201	8
421.665	5
422.13	6
422.594	4
423.059	5
423.523	2
423.987	4
424.452	8
424.916	5
425.381	5
425.846	11
426.31	5
426.775	4
427.24	6
427.704	5
428.169	6
428.634	11
429.099	8
429.564	11
430.029	10
430.494	8
430.959	4
431.424	13
431.889	6
432.354	6
432.819	5
433.284	9
433.75	11
434.215	12
434.68	8
435.146	9
435.611	13
436.077	9
436.542	11
437.008	13
437.473	8
437.939	7
438.404	14
438.87	7
439.336	7
439.801	11
440.267	6
440.733	12
441.199	11
441.665	7
442.131	12
442.596	11
443.062	12
443.529	12
443.995	10
444.461	17
444.927	14
445.393	9
445.859	16
446.325	10
446.792	18
447.258	15
447.724	19
448.191	14
448.657	16
449.124	15
449.59	17
450.057	14
450.523	17
450.99	19
451.457	23
451.923	19
452.39	15
452.857	18
453.324	22
453.791	19
454.257	23
454.724	17
455.191	12
455.658	14
456.125	21
456.592	17
457.059	20
457.527	16
457.994	18
458.461	18
458.928	21
459.396	18
459.863	22
460.33	19
460.798	21
461.265	24
461.732	16
462.2	24
462.668	21
463.135	17
463.603	19
464.07	25
464.538	29
465.006	25
465.474	17
465.941	21
466.409	26
466.877	20
467.345	23
467.813	22
468.281	21
468.749	20
469.217	21
469.685	23
470.153	19
470.621	29
471.09	27
471.558	23
472.026	26
472.494	21
472.963	24
473.431	28
473.9	29
474.368	30
474.837	29
475.305	32
475.774	32
476.242	31
476.711	32
477.18	31
477.648	26
478.117	29
478.586	28
479.055	35
479.524	31
479.993	30
480.462	30
480.93	33
481.399	31
481.869	32
482.338	32
482.807	31
483.276	31
483.745	39
484.214	33
484.684	30
485.153	35
485.622	34
486.092	35
486.561	29
487.031	33
487.5	40
487.97	36
488.439	38
488.909	38
489.378	39
489.848	39
490.318	39
490.787	44
491.257	46
491.727	44
492.197	48
492.667	45
493.137	51
493.607	45
494.077	42
494.547	48
495.017	41
495.487	47
495.957	50
496.427	49
496.897	50
497.368	45
497.838	44
498.308	46
498.779	52
499.249	53
499.719	47
500.19	43
500.66	53
501.131	51
501.602	55
502.072	51
502.543	47
503.014	48
503.484	53
503.955	59
504.426	61
504.897	53
505.368	60
505.838	60
506.309	67
506.78	62
507.251	60
507.722	69
508.194	67
508.665	66
509.136	68
509.607	74
510.078	72
510.549	77
511.021	75
511.492	71
511.964	72
512.435	78
512.906	77
513.378	80
513.849	83
514.321	85
514.793	79
515.264	80
515.736	79
516.208	83
516.679	78
517.151	88
517.623	85
518.095	87
518.567	87
519.038	88
519.51	92
519.982	88
520.454	93
520.927	94
521.399	96
521.871	92
522.343	97
522.815	96
523.287	97
523.76	100
524.232	101
524.704	98
525.177	98
525.649	101
526.122	102
526.594	101
527.067	97
527.539	103
528.012	107
528.484	104
528.957	102
529.43	101
529.903	104
530.375	110
530.848	104
531.321	104
531.794	104
532.267	109
532.74	105
533.213	108
533.686	115
534.159	111
534.632	109
535.105	115
535.578	113
536.051	111
536.525	116
536.998	113
537.471	114
537.945	119
538.418	120
538.891	114
539.365	120
539.838	122
540.312	125
540.786	124
541.259	121
541.733	124
542.206	123
542.68	124
543.154	120
543.628	121
544.101	132
544.575	125
545.049	123
545.523	125
545.997	122
546.471	128
546.945	124
547.419	128
547.893	123
548.367	127
548.842	128
549.316	130
549.79	128
550.264	121
550.739	124
551.213	129
551.687	127
552.162	127
552.636	132
553.111	132
553.585	131
554.06	132
554.534	132
555.009	137
555.484	133
555.958	134
556.433	136
556.908	143
557.383	134
557.858	145
558.333	145
558.807	141
559.282	139
559.757	148
560.232	145
560.708	145
561.183	144
561.658	151
562.133	147
562.608	147
563.083	156
563.559	142
564.034	150
564.509	148
564.985	152
565.46	151
565.936	149
566.411	149
566.887	146
567.362	154
567.838	150
568.313	154
568.789	148
569.265	152
569.74	156
570.216	153
570.692	151
571.168	151
571.644	159
572.12	154
572.596	159
573.071	155
573.547	155
574.024	158
574.5	166
574.976	161
575.452	163
575.928	168
576.404	167
576.881	174
577.357	173
577.833	171
578.31	175
578.786	187
579.262	189
579.739	175
580.215	188
580.692	185
581.169	185
581.645	184
582.122	189
582.598	191
583.075	189
583.552	195
584.029	191
584.506	189
584.982	194
585.459	199
585.936	195
586.413	202
586.89	201
587.367	196
587.844	203
588.321	202
588.799	199
589.276	201
589.753	201
590.23	202
590.707	204
591.185	207
591.662	201
592.139	207
592.617	208
593.094	206
593.572	208
594.049	209
594.527	219
595.004	213
595.482	219
595.96	218
596.437	218
596.915	229
597.393	222
597.871	229
598.349	227
598.826	232
599.304	237
599.782	238
600.26	232
600.738	239
601.216	240
601.694	243
602.173	245
602.651	243
603.129	244
603.607	243
604.085	250
604.564	247
605.042	248
605.52	248
605.999	253
606.477	250
606.956	247
607.434	249.5
607.913	252
608.391	247
608.87	254
609.348	245
609.827	245
610.306	253
610.785	251
611.263	256
611.742	250
612.221	253
612.7	254
613.179	251
613.658	249
614.137	258
614.616	260
615.095	256
615.574	259
616.053	256
616.532	264
617.011	261
617.491	258
617.97	262
618.449	258
618.928	263
619.408	268
619.887	266
620.367	270
620.846	266
621.326	271
621.805	275
622.285	276
622.764	281
623.244	281
623.724	286
624.203	282
624.683	278
625.163	279
625.643	283
626.123	281
626.602	294
627.082	283
627.562	281
628.042	291
628.522	287
629.002	293
629.482	294
629.963	289
630.443	288
630.923	290
631.403	292
631.883	289
632.364	288
632.844	290
633.324	292
633.805	295
634.285	290
634.766	292
635.246	294
635.727	294
636.207	288
636.688	288
637.168	293
637.649	286
638.13	292
638.611	289
639.091	291
639.572	285
640.053	293
640.534	290
641.015	293
641.496	287
641.977	289
642.458	285
642.939	287
643.42	288
643.901	292
644.382	291
644.863	297
645.345	293
645.826	292
646.307	297
646.788	303
647.27	296
647.751	302
648.233	299
648.714	295
649.196	301
649.677	291
650.159	297
650.64	301
651.122	309
651.603	295
652.085	304
652.567	306
653.049	301
653.53	306
654.012	311
654.494	301
654.976	304
655.458	304
655.94	307
656.422	308
656.904	306
657.386	304
657.868	303
658.35	299
658.833	307
659.315	301
659.797	306
660.279	299
660.762	305
661.244	298
661.726	298
662.209	305
662.691	298
663.174	296
663.656	299
664.139	297
664.621	299
665.104	292
665.587	301
666.069	301
666.552	300
667.035	292
667.517	289
668	302
668.483	303
668.966	298
669.449	290
669.932	300
670.415	307
670.898	301
671.381	298
671.864	296
672.347	302
672.83	296
673.313	303
673.797	303
674.28	305
674.763	309
675.247	303
675.73	304
676.213	302
676.697	312
677.18	311
677.664	314
678.147	319
678.631	313
679.114	317
679.598	313
680.082	316
680.565	323
681.049	316
681.533	315
682.017	316
682.5	317
682.984	328
683.468	327
683.952	317
684.436	316
684.92	317
685.404	318
685.888	322
686.372	322
686.856	326
687.341	325
687.825	326
688.309	327
688.793	325
689.278	318
689.762	322
690.246	325
690.731	322
691.215	332
691.7	316
692.184	318
692.669	320
693.153	326
693.638	319
694.122	325
694.607	322
695.092	327
695.577	321
696.061	319
696.546	315
697.031	317
697.516	318
698.001	323
698.486	319
698.971	326
699.456	315
699.941	316
700.426	318
700.911	326
701.396	313
701.881	315
702.366	319
702.852	320
703.337	322
703.822	322
704.308	311
704.793	316
705.278	321
705.764	321
706.249	319
706.735	323
707.22	326
707.706	322
708.191	321
708.677	317
709.163	323
709.648	326
710.134	327
710.62	325
711.106	321
711.592	328
712.077	333
712.563	323
713.049	319
713.535	324
714.021	327
714.507	324
714.993	318
715.479	323
715.966	322
716.452	322
716.938	323
717.424	315
717.91	322
718.397	318
718.883	315
719.369	314
719.856	313
720.342	320
720.829	309
721.315	319
721.802	317
722.288	320
722.775	306
723.262	299
723.748	317
724.235	312
724.722	312
725.208	309
725.695	312
726.182	313
726.669	302
727.156	307
727.643	301
728.13	305
728.617	304
729.104	298
729.591	302
730.078	302
730.565	304
731.052	304
731.539	309
732.027	301
732.514	294
733.001	302
733.488	301
733.976	298
734.463	296
734.951	299
735.438	299
735.926	293
736.413	301
736.901	294
737.388	300
737.876	299
738.364	298
738.851	298
739.339	296
739.827	298
740.314	292
740.802	291
741.29	296
741.778	289
742.266	298
742.754	290
743.242	294
743.73	289
744.218	289
744.706	284
745.194	293
745.682	294
746.17	294
746.659	295
747.147	290
747.635	291
748.123	288
748.612	281
749.1	283
749.589	293
750.077	286
750.566	281
751.054	284
751.543	287
752.031	280
752.52	283
753.008	274
753.497	271
753.986	277
754.474	278
754.963	281
755.452	274
755.941	275
756.43	275
756.919	272
757.408	271
757.896	270
758.385	275
758.875	269
759.364	263
759.853	263
760.342	259
760.831	263
761.32	260
761.809	260
762.299	261
762.788	260
763.277	268
763.767	261
764.256	257
764.745	251
765.235	255
765.724	248
766.214	260
766.703	255
767.193	250
767.683	256
768.172	249
768.662	247
769.152	254
769.641	251
770.131	250
770.621	245
771.111	242
771.601	248
772.09	241
772.58	242
773.07	233
773.56	249
774.05	236
774.54	231
775.031	237
775.521	234
776.011	239
776.501	237
776.991	236
777.482	237
777.972	229
778.462	232
778.953	240
779.443	227
779.933	236
780.424	226
780.914	231
781.405	233
781.895	230
782.386	225
782.877	224
783.367	223
783.858	226
784.349	220
784.839	217
785.33	224
785.821	222
786.312	221
786.803	218
787.293	221
787.784	217
788.275	213
788.766	210
789.257	219
789.748	213
790.24	212
790.731	209
791.222	211
791.713	207
792.204	210
792.696	205
793.187	206
793.678	200
794.169	204
794.661	209
795.152	205
795.644	202
796.135	208
796.627	206
797.118	195
797.61	201
798.101	197
798.593	200
799.085	200
799.576	194
800.068	197
800.56	193
801.052	196
801.544	188
802.035	190
802.527	185
803.019	185
803.511	189
804.003	184
804.495	184
804.987	180
805.479	182
805.971	182
806.464	187
806.956	179
807.448	178
807.94	177
808.433	181
808.925	180
809.417	176
809.91	174
810.402	178
810.894	173
811.387	177
811.879	173
812.372	171
812.865	171
813.357	164
813.85	168
814.342	169
814.835	171
815.328	174
815.821	168
816.313	168
816.806	171
817.299	172
817.792	171
818.285	170
818.778	172
819.271	172
819.764	166
820.257	163
820.75	171
821.243	169
821.736	164
822.229	165
822.722	164
823.216	172
