Data from lamp2bck_Subt4__9__164.txt Node

Date: Fri Apr 04 10:40:30 CEST 2025
User: fys-lab-0081
Spectrometer: S04999
Trigger mode: 0
Resolution mode: 1024 pixels
Integration Time (sec): 1.000000E-1
Scans to average: 1
Nonlinearity correction enabled: false
Boxcar width: 0
Baseline correction enabled: true
XAxis mode: Wavelengths
Number of Pixels in Spectrum: 1024
>>>>>Begin Spectral Data<<<<<
336.42	-2
336.877	1
337.334	1
337.792	5
338.249	-3
338.706	3
339.164	0
339.621	0
340.079	0
340.536	1
340.994	1
341.452	5
341.909	-1
342.367	4
342.825	4
343.283	3
343.741	4
344.198	-5
344.656	-1
345.114	0
345.572	-4
346.03	-1
346.488	0
346.947	0
347.405	3
347.863	2
348.321	-1
348.779	-4
349.238	0
349.696	0
350.154	-1
350.613	-7
351.071	-2
351.53	1
351.988	1
352.447	1
352.905	1
353.364	-3
353.823	6
354.282	-1
354.74	2
355.199	3
355.658	0
356.117	0
356.576	0
357.035	3
357.494	-1
357.953	-6
358.412	-1
358.871	1
359.33	5
359.789	-1
360.249	-1
360.708	3
361.167	-4
361.626	3
362.086	-2
362.545	0
363.005	-2
363.464	3
363.924	0
364.383	2
364.843	2
365.303	-4
365.762	4
366.222	3
366.682	0
367.142	-3
367.601	-1
368.061	5
368.521	0
368.981	1
369.441	4
369.901	-3
370.361	5
370.821	5
371.282	-1
371.742	2
372.202	1
372.662	3
373.123	1
373.583	0
374.043	6
374.504	0
374.964	1
375.425	-2
375.885	2
376.346	2
376.806	-5
377.267	1
377.728	-4
378.188	5
378.649	5
379.11	0
379.571	0
380.032	2
380.493	1
380.954	3
381.414	-1
381.876	2
382.337	5
382.798	2
383.259	3
383.72	0
384.181	4
384.642	1
385.104	-1
385.565	4
386.026	1
386.488	10
386.949	2
387.411	7
387.872	3
388.334	3
388.795	4
389.257	3
389.719	5
390.181	4
390.642	5
391.104	1
391.566	1
392.028	-1
392.49	3
392.952	5
393.414	2
393.876	3
394.338	9
394.8	2
395.262	-2
395.724	4
396.186	-2
396.648	5
397.111	4
397.573	2
398.035	-1
398.498	7
398.96	3
399.423	2
399.885	1
400.348	2
400.81	5
401.273	1
401.736	-1
402.198	4
402.661	5
403.124	4
403.587	6
404.049	5.5
404.512	5
404.975	4
405.438	8
405.901	2
406.364	5
406.827	8
407.29	4
407.754	6
408.217	-3
408.68	7
409.143	6
409.607	2
410.07	4
410.533	0
410.997	1
411.46	5
411.924	0
412.387	2
412.851	7
413.314	5
413.778	4
414.242	6
414.705	6
415.169	4
415.633	3
416.097	9
416.561	7
417.024	1
417.488	8
417.952	7
418.416	4
418.88	10
419.344	3
419.809	9
420.273	6
420.737	3
421.201	5
421.665	6
422.13	6
422.594	8
423.059	5
423.523	2
423.987	2
424.452	7
424.916	3
425.381	1
425.846	9
426.31	6
426.775	2
427.24	4
427.704	5
428.169	10
428.634	6
429.099	3
429.564	10
430.029	7
430.494	9
430.959	7
431.424	9
431.889	11
432.354	7
432.819	5
433.284	7
433.75	6
434.215	12
434.68	12
435.146	7
435.611	9
436.077	13
436.542	14
437.008	13
437.473	9
437.939	6
438.404	12
438.87	10
439.336	8
439.801	14
440.267	11
440.733	10
441.199	8
441.665	13
442.131	11
442.596	10
443.062	12
443.529	10
443.995	13
444.461	12
444.927	15
445.393	15
445.859	12
446.325	16
446.792	16
447.258	19
447.724	16
448.191	17
448.657	15
449.124	13
449.59	13
450.057	15
450.523	18
450.99	16
451.457	19
451.923	18
452.39	19
452.857	17
453.324	20
453.791	18
454.257	23
454.724	19
455.191	13
455.658	18
456.125	19
456.592	20
457.059	19
457.527	14
457.994	15
458.461	21
458.928	18
459.396	19
459.863	21
460.33	18
460.798	20
461.265	22
461.732	18
462.2	22
462.668	21
463.135	23
463.603	22
464.07	30
464.538	24
465.006	23
465.474	20
465.941	22
466.409	24
466.877	22
467.345	23
467.813	24
468.281	18
468.749	21
469.217	25
469.685	28
470.153	19
470.621	25
471.09	28
471.558	25
472.026	30
472.494	24
472.963	22
473.431	31
473.9	27
474.368	32
474.837	30
475.305	31
475.774	33
476.242	30
476.711	32
477.18	34
477.648	29
478.117	36
478.586	33
479.055	33
479.524	28
479.993	32
480.462	37
480.93	36
481.399	27
481.869	31
482.338	34
482.807	32
483.276	32
483.745	35
484.214	34
484.684	29
485.153	37
485.622	33
486.092	33
486.561	34
487.031	32
487.5	40
487.97	37
488.439	36
488.909	40
489.378	40
489.848	45
490.318	35
490.787	43
491.257	48
491.727	45
492.197	46
492.667	49
493.137	53
493.607	51
494.077	46
494.547	48
495.017	43
495.487	49
495.957	50
496.427	49
496.897	48
497.368	52
497.838	48
498.308	47
498.779	53
499.249	52
499.719	51
500.19	46
500.66	54
501.131	52
501.602	57
502.072	52
502.543	49
503.014	46
503.484	56
503.955	58
504.426	59
504.897	54
505.368	55
505.838	60
506.309	64
506.78	63
507.251	60
507.722	70
508.194	63
508.665	66
509.136	69
509.607	71
510.078	71
510.549	77
511.021	79
511.492	74
511.964	77
512.435	81
512.906	80
513.378	84
513.849	81
514.321	85
514.793	78
515.264	77
515.736	84
516.208	88
516.679	82
517.151	90
517.623	87
518.095	92
518.567	93
519.038	88
519.51	88
519.982	93
520.454	95
520.927	95
521.399	93
521.871	92
522.343	95
522.815	103
523.287	103
523.76	100
524.232	100
524.704	104
525.177	100
525.649	101
526.122	105
526.594	106
527.067	104
527.539	107
528.012	104
528.484	106
528.957	108
529.43	108
529.903	105
530.375	108
530.848	107
531.321	110
531.794	108
532.267	105
532.74	109
533.213	108
533.686	117
534.159	109
534.632	115
535.105	117
535.578	114
536.051	119
536.525	117
536.998	118
537.471	122
537.945	121
538.418	122
538.891	115
539.365	126
539.838	125
540.312	128
540.786	126
541.259	121
541.733	129
542.206	130
542.68	127
543.154	130
543.628	123
544.101	133
544.575	131
545.049	124
545.523	129
545.997	130
546.471	129
546.945	136
547.419	132
547.893	126
548.367	131
548.842	132
549.316	128
549.79	129
550.264	125
550.739	131
551.213	130
551.687	130
552.162	134
552.636	130
553.111	137
553.585	133
554.06	136
554.534	136
555.009	138
555.484	142
555.958	143
556.433	137
556.908	143
557.383	137
557.858	144
558.333	148
558.807	142
559.282	143
559.757	148
560.232	149
560.708	152
561.183	151
561.658	150
562.133	152
562.608	147
563.083	156
563.559	146
564.034	155
564.509	154
564.985	153
565.46	155
565.936	151
566.411	155
566.887	153
567.362	156
567.838	151
568.313	154
568.789	155
569.265	159
569.74	157
570.216	148
570.692	155
571.168	156
571.644	160
572.12	154
572.596	159
573.071	157
573.547	162
574.024	167
574.5	167
574.976	164
575.452	171
575.928	169
576.404	173
576.881	180
577.357	174
577.833	174
578.31	183
578.786	186
579.262	192
579.739	183
580.215	190
580.692	187
581.169	191
581.645	192
582.122	193
582.598	188
583.075	197
583.552	194
584.029	191
584.506	195
584.982	194
585.459	201
585.936	197
586.413	202
586.89	200
587.367	203
587.844	210
588.321	203
588.799	201
589.276	201
589.753	208
590.23	210
590.707	207
591.185	207
591.662	206
592.139	213
592.617	212
593.094	210
593.572	216
594.049	216
594.527	226
595.004	214
595.482	223
595.96	225
596.437	224
596.915	234
597.393	229
597.871	228
598.349	227
598.826	235
599.304	241
599.782	241
600.26	232
600.738	246
601.216	243
601.694	248
602.173	249
602.651	253
603.129	245
603.607	247
604.085	258
604.564	253
605.042	255
605.52	250
605.999	258
606.477	253
606.956	252
607.434	255
607.913	258
608.391	250
608.87	258
609.348	253
609.827	253
610.306	259
610.785	259
611.263	262
611.742	260
612.221	259
612.7	250
613.179	258
613.658	255
614.137	264
614.616	265
615.095	261
615.574	263
616.053	262
616.532	266
617.011	268
617.491	266
617.97	264
618.449	264
618.928	270
619.408	269
619.887	272
620.367	281
620.846	271
621.326	279
621.805	275
622.285	275
622.764	282
623.244	289
623.724	289
624.203	288
624.683	281
625.163	290
625.643	286
626.123	287
626.602	298
627.082	287
627.562	290
628.042	294
628.522	295
629.002	298
629.482	304
629.963	291
630.443	293
630.923	291
631.403	295
631.883	293
632.364	294
632.844	298
633.324	293
633.805	296
634.285	294
634.766	300
635.246	295
635.727	299
636.207	293
636.688	296
637.168	299
637.649	290
638.13	292
638.611	296
639.091	296
639.572	293
640.053	297
640.534	299
641.015	299
641.496	288
641.977	293
642.458	292
642.939	291
643.42	295
643.901	294
644.382	292
644.863	300
645.345	298
645.826	304
646.307	300
646.788	309
647.27	298
647.751	308
648.233	307
648.714	302
649.196	302
649.677	306
650.159	310
650.64	301
651.122	310
651.603	304
652.085	309
652.567	310
653.049	307
653.53	310
654.012	305
654.494	305
654.976	309
655.458	311
655.94	309
656.422	317
656.904	313
657.386	304
657.868	308
658.35	308
658.833	312
659.315	306
659.797	308
660.279	304
660.762	312
661.244	309
661.726	307
662.209	305
662.691	304
663.174	299
663.656	303
664.139	299
664.621	302
665.104	298
665.587	308
666.069	302
666.552	307
667.035	299
667.517	301
668	299
668.483	305
668.966	304
669.449	296
669.932	301
670.415	308
670.898	304
671.381	302
671.864	302
672.347	308
672.83	307
673.313	313
673.797	307
674.28	316
674.763	315
675.247	310
675.73	308
676.213	310
676.697	322
677.18	313
677.664	311
678.147	322
678.631	323
679.114	325
679.598	320
680.082	320
680.565	322
681.049	319
681.533	323
682.017	324
682.5	328
682.984	333
683.468	334
683.952	326
684.436	320
684.92	323
685.404	327
685.888	332
686.372	332
686.856	332
687.341	333
687.825	330
688.309	330
688.793	332
689.278	322
689.762	328
690.246	328
690.731	324
691.215	333
691.7	321
692.184	325
692.669	329
693.153	328
693.638	321
694.122	324
694.607	330
695.092	332
695.577	326
696.061	327
696.546	322
697.031	321
697.516	328
698.001	333
698.486	319
698.971	331
699.456	321
699.941	324
700.426	329
700.911	323
701.396	320
701.881	319
702.366	322
702.852	324
703.337	324
703.822	324
704.308	319
704.793	319
705.278	322
705.764	322
706.249	323
706.735	326
707.22	327
707.706	325
708.191	330
708.677	325
709.163	325
709.648	328
710.134	333
710.62	325
711.106	323
711.592	326
712.077	336
712.563	327
713.049	319
713.535	331
714.021	331
714.507	325
714.993	327
715.479	332
715.966	324
716.452	327
716.938	334
717.424	321
717.91	327
718.397	321
718.883	324
719.369	319
719.856	322
720.342	324
720.829	316
721.315	323
721.802	317
722.288	325
722.775	310
723.262	309
723.748	320
724.235	320
724.722	317
725.208	315
725.695	313
726.182	316
726.669	311
727.156	310
727.643	310
728.13	305
728.617	311
729.104	304
729.591	310
730.078	309
730.565	313
731.052	309
731.539	310
732.027	308
732.514	302
733.001	305
733.488	297
733.976	304
734.463	305
734.951	305
735.438	302
735.926	299
736.413	308
736.901	301
737.388	305
737.876	300
738.364	302
738.851	300
739.339	300
739.827	306
740.314	299
740.802	295
741.29	303
741.778	293
742.266	304
742.754	296
743.242	301
743.73	289
744.218	298
744.706	292
745.194	296
745.682	294
746.17	301
746.659	300
747.147	293
747.635	294
748.123	294
748.612	292
749.1	283
749.589	292
750.077	293
750.566	282
751.054	295
751.543	288
752.031	289
752.52	286
753.008	280
753.497	274
753.986	279
754.474	285
754.963	284
755.452	282
755.941	275
756.43	276
756.919	282
757.408	276
757.896	275
758.385	277
758.875	271
759.364	269
759.853	266
760.342	264
760.831	265
761.32	269
761.809	268
762.299	266
762.788	266
763.277	270
763.767	265
764.256	262
764.745	257
765.235	261
765.724	254
766.214	260
766.703	259
767.193	258
767.683	262
768.172	253
768.662	251
769.152	254
769.641	258
770.131	248
770.621	247
771.111	246
771.601	246
772.09	247
772.58	242
773.07	239
773.56	250
774.05	241
774.54	237
775.031	245
775.521	238
776.011	240
776.501	241
776.991	235
777.482	245
777.972	234
778.462	230
778.953	238
779.443	233
779.933	235
780.424	230
780.914	236
781.405	238
781.895	234
782.386	231
782.877	232
783.367	223
783.858	225
784.349	229
784.839	220
785.33	228
785.821	221
786.312	227
786.803	223
787.293	219
787.784	220
788.275	216
788.766	214
789.257	223
789.748	216
790.24	218
790.731	214
791.222	215
791.713	215
792.204	211
792.696	201
793.187	212
793.678	208
794.169	209
794.661	211
795.152	209
795.644	204
796.135	210
796.627	212
797.118	202
797.61	201
798.101	198
798.593	202
799.085	202
799.576	198
800.068	193
800.56	198
801.052	195
801.544	192
802.035	195
802.527	187
803.019	198
803.511	192
804.003	184
804.495	189
804.987	188
805.479	183
805.971	182
806.464	189
806.956	183
807.448	178
807.94	181
808.433	183
808.925	180
809.417	181
809.91	178
810.402	176
810.894	180
811.387	183
811.879	181
812.372	176
812.865	174
813.357	167
813.85	170
814.342	168
814.835	176
815.328	175
815.821	171
816.313	169
816.806	174
817.299	172
817.792	173
818.285	170
818.778	177
819.271	174
819.764	167
820.257	173
820.75	176
821.243	173
821.736	171
822.229	169
822.722	168
823.216	170
