Data from lamp2bck_Subt4__13__168.txt Node

Date: Fri Apr 04 10:40:31 CEST 2025
User: fys-lab-0081
Spectrometer: S04999
Trigger mode: 0
Resolution mode: 1024 pixels
Integration Time (sec): 1.000000E-1
Scans to average: 1
Nonlinearity correction enabled: false
Boxcar width: 0
Baseline correction enabled: true
XAxis mode: Wavelengths
Number of Pixels in Spectrum: 1024
>>>>>Begin Spectral Data<<<<<
336.42	-5
336.877	-4
337.334	-1
337.792	4
338.249	2
338.706	3
339.164	3
339.621	-2
340.079	5
340.536	-1
340.994	-3
341.452	0
341.909	1
342.367	2
342.825	4
343.283	1
343.741	3
344.198	-5
344.656	-2
345.114	1
345.572	-5
346.03	0
346.488	-3
346.947	0
347.405	3
347.863	2
348.321	0
348.779	1
349.238	0
349.696	0
350.154	0
350.613	1
351.071	1
351.53	0
351.988	2
352.447	0
352.905	1
353.364	-1
353.823	5
354.282	1
354.74	1
355.199	4
355.658	0
356.117	3
356.576	-5
357.035	-1
357.494	-1
357.953	1
358.412	-2
358.871	4
359.33	-1
359.789	3
360.249	3
360.708	6
361.167	-3
361.626	3
362.086	0
362.545	0
363.005	-5
363.464	1
363.924	2
364.383	2
364.843	1
365.303	-1
365.762	-2
366.222	-2
366.682	-4
367.142	-1
367.601	-1
368.061	1
368.521	8
368.981	-1
369.441	1
369.901	-6
370.361	4
370.821	10
371.282	1
371.742	-5
372.202	-2
372.662	1
373.123	1
373.583	5
374.043	5
374.504	-1
374.964	-1
375.425	1
375.885	3
376.346	1
376.806	-2
377.267	3
377.728	0
378.188	2
378.649	-1
379.11	-1
379.571	1
380.032	0
380.493	0
380.954	4
381.414	2
381.876	1
382.337	3
382.798	2
383.259	2
383.72	-3
384.181	8
384.642	-1
385.104	0
385.565	-1
386.026	-1
386.488	5
386.949	2
387.411	8
387.872	3
388.334	-1
388.795	4
389.257	3
389.719	0
390.181	0
390.642	7
391.104	6
391.566	4
392.028	-2
392.49	0
392.952	3
393.414	0
393.876	1
394.338	4
394.8	-1
395.262	0
395.724	2
396.186	3
396.648	6
397.111	-1
397.573	6
398.035	-3
398.498	0
398.96	6
399.423	0
399.885	2
400.348	4
400.81	0
401.273	2
401.736	-2
402.198	2
402.661	8
403.124	6
403.587	8
404.049	6
404.512	4
404.975	4
405.438	7
405.901	2
406.364	2
406.827	10
407.29	5
407.754	3
408.217	-2
408.68	6
409.143	6
409.607	2
410.07	-3
410.533	3
410.997	3
411.46	5
411.924	1
412.387	-2
412.851	4
413.314	4
413.778	6
414.242	6
414.705	8
415.169	3
415.633	5
416.097	7
416.561	6
417.024	4
417.488	5
417.952	10
418.416	1
418.88	11
419.344	4
419.809	8
420.273	9
420.737	6
421.201	3
421.665	0
422.13	8
422.594	2
423.059	6
423.523	1
423.987	5
424.452	10
424.916	5
425.381	6
425.846	8
426.31	5
426.775	0
427.24	7
427.704	8
428.169	10
428.634	7
429.099	5
429.564	7
430.029	9
430.494	5
430.959	8
431.424	5
431.889	7
432.354	6
432.819	8
433.284	7
433.75	9
434.215	9
434.68	10
435.146	11
435.611	11
436.077	13
436.542	12
437.008	9
437.473	10
437.939	6
438.404	14
438.87	11
439.336	6
439.801	12
440.267	12
440.733	10
441.199	14
441.665	9
442.131	12
442.596	15
443.062	13
443.529	9
443.995	13
444.461	15
444.927	16
445.393	9
445.859	18
446.325	15
446.792	16
447.258	14
447.724	17
448.191	20
448.657	21
449.124	16
449.59	14
450.057	15
450.523	18
450.99	17
451.457	20
451.923	23
452.39	14
452.857	21
453.324	22
453.791	17
454.257	25
454.724	23
455.191	15
455.658	16
456.125	15
456.592	21
457.059	18
457.527	14
457.994	19
458.461	15
458.928	23
459.396	21
459.863	24
460.33	22
460.798	23
461.265	23
461.732	16
462.2	21
462.668	25
463.135	21
463.603	22
464.07	24
464.538	27
465.006	23
465.474	16
465.941	21
466.409	28
466.877	23
467.345	22
467.813	22
468.281	23
468.749	25
469.217	22
469.685	25
470.153	15
470.621	26
471.09	25
471.558	25
472.026	22
472.494	23
472.963	27
473.431	32
473.9	30
474.368	28
474.837	30
475.305	29
475.774	33
476.242	32
476.711	34
477.18	37
477.648	30
478.117	33
478.586	33
479.055	36
479.524	32
479.993	34
480.462	35
480.93	37
481.399	29
481.869	34
482.338	30
482.807	34
483.276	35
483.745	37
484.214	37
484.684	30
485.153	36
485.622	38
486.092	35
486.561	35
487.031	36
487.5	38
487.97	39
488.439	35
488.909	37
489.378	43
489.848	43
490.318	38
490.787	44
491.257	48
491.727	46
492.197	48
492.667	45
493.137	51
493.607	49
494.077	45
494.547	50
495.017	42
495.487	49
495.957	58
496.427	50
496.897	49
497.368	48
497.838	47
498.308	47
498.779	55
499.249	51
499.719	47
500.19	46
500.66	49
501.131	54
501.602	52
502.072	50
502.543	53
503.014	49
503.484	58
503.955	57
504.426	58
504.897	58
505.368	62
505.838	59
506.309	67
506.78	64
507.251	60
507.722	71
508.194	68
508.665	68
509.136	69
509.607	73
510.078	72
510.549	79
511.021	78
511.492	80
511.964	78
512.435	79
512.906	78
513.378	85
513.849	89
514.321	86
514.793	75
515.264	77
515.736	81
516.208	92
516.679	87
517.151	89
517.623	86
518.095	93
518.567	97
519.038	90
519.51	91
519.982	95
520.454	95
520.927	97
521.399	102
521.871	95
522.343	97
522.815	99
523.287	99
523.76	103
524.232	105
524.704	107
525.177	105
525.649	102
526.122	103
526.594	101
527.067	105
527.539	107
528.012	111
528.484	108
528.957	108
529.43	105
529.903	111
530.375	105
530.848	104
531.321	116
531.794	108
532.267	110
532.74	106
533.213	111
533.686	117
534.159	114
534.632	113
535.105	117
535.578	119
536.051	117
536.525	122
536.998	118
537.471	121
537.945	122
538.418	122
538.891	116
539.365	126
539.838	124
540.312	128
540.786	128
541.259	124
541.733	130
542.206	128
542.68	128
543.154	129
543.628	127
544.101	134
544.575	127
545.049	117
545.523	133
545.997	130
546.471	134
546.945	132
547.419	136
547.893	126
548.367	131
548.842	131
549.316	130
549.79	127
550.264	130
550.739	131
551.213	134
551.687	133
552.162	134
552.636	133
553.111	135
553.585	132
554.06	136
554.534	138
555.009	137
555.484	137
555.958	140
556.433	137
556.908	149
557.383	136
557.858	149
558.333	148
558.807	146
559.282	145
559.757	153
560.232	149
560.708	149
561.183	152
561.658	150
562.133	150
562.608	150
563.083	155
563.559	152
564.034	152
564.509	152
564.985	154
565.46	157
565.936	149
566.411	155
566.887	158
567.362	155
567.838	153
568.313	160
568.789	153
569.265	161
569.74	157
570.216	155
570.692	155
571.168	157
571.644	161
572.12	158
572.596	162
573.071	159
573.547	165
574.024	167
574.5	164
574.976	162
575.452	166
575.928	174
576.404	177
576.881	180
577.357	177
577.833	173
578.31	184
578.786	188
579.262	193
579.739	179
580.215	190
580.692	194
581.169	191
581.645	188
582.122	197
582.598	195
583.075	197
583.552	198
584.029	199
584.506	199
584.982	201
585.459	205
585.936	200
586.413	203
586.89	206
587.367	202
587.844	208
588.321	202
588.799	205
589.276	209
589.753	210
590.23	210
590.707	211
591.185	208
591.662	210
592.139	215
592.617	215
593.094	216
593.572	219
594.049	219
594.527	221
595.004	219
595.482	231
595.96	224
596.437	225
596.915	236
597.393	226
597.871	235
598.349	231
598.826	239
599.304	246
599.782	248
600.26	241
600.738	247
601.216	242
601.694	247
602.173	252
602.651	253
603.129	247
603.607	250
604.085	259
604.564	255
605.042	253
605.52	249
605.999	258
606.477	259
606.956	253
607.434	256
607.913	259
608.391	259
608.87	262
609.348	255
609.827	253
610.306	259
610.785	262
611.263	258
611.742	259
612.221	258
612.7	254
613.179	261
613.658	254
614.137	268
614.616	266
615.095	264
615.574	272
616.053	264
616.532	268
617.011	268
617.491	266
617.97	266
618.449	266
618.928	268
619.408	279
619.887	276
620.367	278
620.846	277
621.326	279
621.805	281
622.285	276
622.764	284
623.244	289
623.724	296
624.203	292
624.683	290
625.163	290
625.643	293
626.123	290
626.602	297
627.082	294
627.562	290
628.042	302
628.522	294
629.002	304
629.482	306
629.963	295
630.443	291
630.923	298
631.403	296
631.883	294
632.364	298
632.844	300
633.324	297
633.805	302
634.285	297
634.766	302
635.246	295
635.727	299
636.207	299
636.688	295
637.168	299
637.649	293
638.13	290
638.611	293
639.091	299
639.572	294
640.053	294
640.534	300
641.015	300
641.496	296
641.977	298
642.458	293
642.939	294
643.42	300
643.901	298
644.382	303
644.863	300
645.345	305
645.826	303
646.307	301
646.788	309
647.27	305
647.751	309
648.233	305
648.714	298
649.196	311
649.677	306
650.159	311
650.64	312
651.122	315
651.603	308
652.085	314
652.567	312
653.049	307
653.53	310
654.012	318
654.494	303
654.976	313
655.458	310
655.94	310
656.422	315
656.904	313
657.386	312
657.868	312
658.35	307
658.833	317
659.315	310
659.797	308
660.279	310
660.762	313
661.244	308
661.726	306
662.209	306
662.691	305
663.174	302
663.656	302
664.139	300
664.621	306
665.104	294
665.587	308
666.069	302
666.552	310
667.035	302
667.517	301
668	304
668.483	309
668.966	303
669.449	299
669.932	301
670.415	313
670.898	312
671.381	306
671.864	306
672.347	308
672.83	304
673.313	314
673.797	307
674.28	314
674.763	315
675.247	312
675.73	311
676.213	310
676.697	326
677.18	321
677.664	316
678.147	323
678.631	323
679.114	325
679.598	327
680.082	326
680.565	326
681.049	326
681.533	321
682.017	327
682.5	325
682.984	335
683.468	330
683.952	328
684.436	325
684.92	327
685.404	326
685.888	330
686.372	332
686.856	334
687.341	333
687.825	333
688.309	334
688.793	330
689.278	326
689.762	326
690.246	333
690.731	327
691.215	332
691.7	325
692.184	324
692.669	329
693.153	333
693.638	326
694.122	326
694.607	328
695.092	331
695.577	332
696.061	330
696.546	322
697.031	322
697.516	329
698.001	332
698.486	322
698.971	327
699.456	322
699.941	324
700.426	325
700.911	327
701.396	317
701.881	318
702.366	324
702.852	324
703.337	325
703.822	328
704.308	323
704.793	327
705.278	326
705.764	330
706.249	326
706.735	329
707.22	329
707.706	328
708.191	332
708.677	324
709.163	327
709.648	332
710.134	333
710.62	332
711.106	328
711.592	329
712.077	338
712.563	332
713.049	322
713.535	335
714.021	331
714.507	329
714.993	328
715.479	332
715.966	328
716.452	328
716.938	330
717.424	318
717.91	331
718.397	325
718.883	328
719.369	321
719.856	322
720.342	330
720.829	314
721.315	321
721.802	316
722.288	327
722.775	312
723.262	311
723.748	323
724.235	317
724.722	319
725.208	311
725.695	314
726.182	319
726.669	314
727.156	309
727.643	310
728.13	310
728.617	313
729.104	305
729.591	306
730.078	310
730.565	307
731.052	312
731.539	309
732.027	309
732.514	300
733.001	305
733.488	304
733.976	304
734.463	305
734.951	304
735.438	304
735.926	299
736.413	308
736.901	302
737.388	305
737.876	307
738.364	300
738.851	304
739.339	301
739.827	304
740.314	297
740.802	297
741.29	302
741.778	299
742.266	297
742.754	299
743.242	301
743.73	294
744.218	298
744.706	290
745.194	297
745.682	297
746.17	299
746.659	302
747.147	292
747.635	295
748.123	297
748.612	292
749.1	285
749.589	294
750.077	291
750.566	289
751.054	287
751.543	293
752.031	285
752.52	289
753.008	286
753.497	274
753.986	282
754.474	281
754.963	289
755.452	284
755.941	276
756.43	276
756.919	273
757.408	276
757.896	282
758.385	280
758.875	271
759.364	272
759.853	267
760.342	266
760.831	267
761.32	268
761.809	264
762.299	268
762.788	263
763.277	266
763.767	265
764.256	262
764.745	254
765.235	260
765.724	257
766.214	263
766.703	259
767.193	259
767.683	263
768.172	253
768.662	251
769.152	253
769.641	260
770.131	254
770.621	248
771.111	248
771.601	248
772.09	249
772.58	246
773.07	239
773.56	256
774.05	242
774.54	240
775.031	241
775.521	242
776.011	245
776.501	244
776.991	237
777.482	243
777.972	236
778.462	234
778.953	240
779.443	234
779.933	238
780.424	233
780.914	231
781.405	235
781.895	233
782.386	230
782.877	230
783.367	227
783.858	226
784.349	226
784.839	222
785.33	230
785.821	226
786.312	226
786.803	225
787.293	221
787.784	220
788.275	216
788.766	214
789.257	223
789.748	215
790.24	218
790.731	218
791.222	212
791.713	212
792.204	213
792.696	207
793.187	210
793.678	208
794.169	207
794.661	210
795.152	208
795.644	207
796.135	208
796.627	213
797.118	201
797.61	205
798.101	202
798.593	204
799.085	209
799.576	197
800.068	194
800.56	195
801.052	198
801.544	195
802.035	193
802.527	190
803.019	193
803.511	192
804.003	183
804.495	193
804.987	186
805.479	182
805.971	182
806.464	193
806.956	180
807.448	181
807.94	183
808.433	183
808.925	181
809.417	177
809.91	178
810.402	179
810.894	176
811.387	180
811.879	176
812.372	173
812.865	175
813.357	166
813.85	169
814.342	170
814.835	173
815.328	173
815.821	169
816.313	167
816.806	171
817.299	175
817.792	172
818.285	164
818.778	175
819.271	173
819.764	171
820.257	169
820.75	172
821.243	171
821.736	165
822.229	172
822.722	168
823.216	170
