Data from lamp2bck_Subt4__12__167.txt Node

Date: Fri Apr 04 10:40:30 CEST 2025
User: fys-lab-0081
Spectrometer: S04999
Trigger mode: 0
Resolution mode: 1024 pixels
Integration Time (sec): 1.000000E-1
Scans to average: 1
Nonlinearity correction enabled: false
Boxcar width: 0
Baseline correction enabled: true
XAxis mode: Wavelengths
Number of Pixels in Spectrum: 1024
>>>>>Begin Spectral Data<<<<<
336.42	-2
336.877	1
337.334	2
337.792	5
338.249	0
338.706	6
339.164	0
339.621	0
340.079	3
340.536	1
340.994	2
341.452	3
341.909	7
342.367	1
342.825	2
343.283	3
343.741	3
344.198	-2
344.656	0
345.114	5
345.572	-3
346.03	1
346.488	-1
346.947	2
347.405	1
347.863	3
348.321	-5
348.779	0
349.238	1
349.696	1
350.154	0
350.613	-1
351.071	-1
351.53	-1
351.988	0
352.447	-3
352.905	-3
353.364	-1
353.823	9
354.282	1
354.74	-1
355.199	-2
355.658	-2
356.117	-2
356.576	-2
357.035	1
357.494	-6
357.953	-2
358.412	1
358.871	1
359.33	3
359.789	-1
360.249	0
360.708	3
361.167	2
361.626	0
362.086	3
362.545	-4
363.005	-4
363.464	2
363.924	-1
364.383	-2
364.843	3
365.303	-3
365.762	0
366.222	2
366.682	-3
367.142	-1
367.601	1
368.061	5
368.521	1
368.981	4
369.441	0
369.901	-6
370.361	-1
370.821	9
371.282	3
371.742	-2
372.202	2
372.662	5
373.123	1
373.583	1
374.043	2
374.504	1
374.964	-2
375.425	2
375.885	2
376.346	3
376.806	-1
377.267	2
377.728	-4
378.188	3
378.649	-2
379.11	1
379.571	-5
380.032	4
380.493	1
380.954	5
381.414	0
381.876	2
382.337	3
382.798	1
383.259	5
383.72	3
384.181	2
384.642	0
385.104	4
385.565	0
386.026	1
386.488	4
386.949	0
387.411	7
387.872	4
388.334	1
388.795	-1
389.257	2
389.719	5
390.181	1
390.642	4
391.104	6
391.566	0
392.028	1
392.49	1
392.952	4
393.414	0
393.876	1
394.338	4
394.8	-1
395.262	-1
395.724	7
396.186	2
396.648	6
397.111	0
397.573	3
398.035	1
398.498	7
398.96	6
399.423	3
399.885	1
400.348	3
400.81	4
401.273	6
401.736	4
402.198	3
402.661	5
403.124	4
403.587	7
404.049	5
404.512	3
404.975	5
405.438	4
405.901	-3
406.364	0
406.827	10
407.29	2
407.754	5
408.217	1
408.68	4
409.143	3
409.607	4
410.07	0
410.533	5
410.997	2
411.46	6
411.924	6
412.387	3
412.851	-1
413.314	4
413.778	6
414.242	3
414.705	9
415.169	4
415.633	3
416.097	10
416.561	5
417.024	5
417.488	6
417.952	5
418.416	2
418.88	11
419.344	5
419.809	8
420.273	13
420.737	3
421.201	3
421.665	5
422.13	9
422.594	7
423.059	6
423.523	2
423.987	9
424.452	4
424.916	1
425.381	8
425.846	11
426.31	6
426.775	0
427.24	3
427.704	4
428.169	10
428.634	11
429.099	6
429.564	10
430.029	9
430.494	8
430.959	6
431.424	5
431.889	9
432.354	6
432.819	9
433.284	8
433.75	10
434.215	10
434.68	11
435.146	12
435.611	11
436.077	13
436.542	13
437.008	11
437.473	10
437.939	10
438.404	16
438.87	9
439.336	11
439.801	14
440.267	13
440.733	9
441.199	10
441.665	8
442.131	15
442.596	7
443.062	12
443.529	11
443.995	9
444.461	16
444.927	13
445.393	8
445.859	14
446.325	10
446.792	20
447.258	15
447.724	16
448.191	19
448.657	17
449.124	16
449.59	15
450.057	15
450.523	16
450.99	15
451.457	23
451.923	17
452.39	16
452.857	15
453.324	18
453.791	18
454.257	25
454.724	20
455.191	12
455.658	18
456.125	21
456.592	23
457.059	20
457.527	16
457.994	16
458.461	20
458.928	17
459.396	24
459.863	23
460.33	19
460.798	21
461.265	20
461.732	20
462.2	24
462.668	24
463.135	22
463.603	19
464.07	28
464.538	25
465.006	27
465.474	18
465.941	25
466.409	24
466.877	19
467.345	24
467.813	20
468.281	19
468.749	24
469.217	25
469.685	27
470.153	17
470.621	27
471.09	25
471.558	28
472.026	26
472.494	22
472.963	30
473.431	30
473.9	30
474.368	34
474.837	31
475.305	29
475.774	34
476.242	30
476.711	34
477.18	33
477.648	32
478.117	35
478.586	31
479.055	32
479.524	32
479.993	31
480.462	34
480.93	35
481.399	26
481.869	31
482.338	29
482.807	36
483.276	31
483.745	32
484.214	39
484.684	33
485.153	33
485.622	38
486.092	38
486.561	34
487.031	38
487.5	38
487.97	38
488.439	39
488.909	35
489.378	40
489.848	42
490.318	43
490.787	41
491.257	48
491.727	41
492.197	46
492.667	50
493.137	54
493.607	49
494.077	45
494.547	56
495.017	42
495.487	52
495.957	50
496.427	52
496.897	50
497.368	45
497.838	44
498.308	48
498.779	58
499.249	52
499.719	48
500.19	51
500.66	54
501.131	54
501.602	52
502.072	52
502.543	49
503.014	52
503.484	58
503.955	57
504.426	61
504.897	60
505.368	58
505.838	60
506.309	67
506.78	70
507.251	61
507.722	70
508.194	69
508.665	69
509.136	69
509.607	73
510.078	67
510.549	79
511.021	79
511.492	76
511.964	76
512.435	79
512.906	78
513.378	83
513.849	83
514.321	84
514.793	79
515.264	80
515.736	86
516.208	88
516.679	86
517.151	91
517.623	86
518.095	90
518.567	94
519.038	89
519.51	91
519.982	96
520.454	96
520.927	97
521.399	100
521.871	96
522.343	97
522.815	103
523.287	97
523.76	101
524.232	105
524.704	103
525.177	105
525.649	104
526.122	105
526.594	100
527.067	106
527.539	111
528.012	109
528.484	110
528.957	107
529.43	110
529.903	109
530.375	111
530.848	108
531.321	108
531.794	106
532.267	113
532.74	112
533.213	110
533.686	116
534.159	114
534.632	116
535.105	119
535.578	120
536.051	119
536.525	122
536.998	120
537.471	124
537.945	123
538.418	123
538.891	123
539.365	124
539.838	130
540.312	127
540.786	129
541.259	127
541.733	130
542.206	132
542.68	129
543.154	128
543.628	122
544.101	133
544.575	131
545.049	125
545.523	132
545.997	130
546.471	135
546.945	134
547.419	133
547.893	128
548.367	131
548.842	134
549.316	136
549.79	133
550.264	129
550.739	135
551.213	133
551.687	133
552.162	136
552.636	136
553.111	138
553.585	134
554.06	135
554.534	138
555.009	138
555.484	137
555.958	143
556.433	139
556.908	151
557.383	141
557.858	146
558.333	149
558.807	145
559.282	147
559.757	149
560.232	153
560.708	147
561.183	151
561.658	156
562.133	155
562.608	149
563.083	156
563.559	148
564.034	154
564.509	151
564.985	151
565.46	151
565.936	149
566.411	157
566.887	154
567.362	156
567.838	154
568.313	162
568.789	160
569.265	156
569.74	163
570.216	159
570.692	159
571.168	150
571.644	163
572.12	156
572.596	161
573.071	159
573.547	164
574.024	164
574.5	168
574.976	165
575.452	168
575.928	173
576.404	178
576.881	179
577.357	173
577.833	176
578.31	185
578.786	191
579.262	193
579.739	182
580.215	194
580.692	194
581.169	196
581.645	190
582.122	198
582.598	197
583.075	197
583.552	203
584.029	199
584.506	199
584.982	197
585.459	200
585.936	200
586.413	205
586.89	210
587.367	202
587.844	206
588.321	208
588.799	204
589.276	204
589.753	210
590.23	211
590.707	214
591.185	211
591.662	211
592.139	215
592.617	216
593.094	213
593.572	217
594.049	220
594.527	226
595.004	221
595.482	228
595.96	226
596.437	228
596.915	237
597.393	233
597.871	231
598.349	232
598.826	239
599.304	243
599.782	251
600.26	239
600.738	245
601.216	249
601.694	242
602.173	250
602.651	254
603.129	251
603.607	248
604.085	257
604.564	259
605.042	254
605.52	255
605.999	253
606.477	260
606.956	256
607.434	259.5
607.913	263
608.391	258
608.87	258
609.348	258
609.827	257
610.306	257
610.785	260
611.263	264
611.742	264
612.221	261
612.7	259
613.179	260
613.658	260
614.137	270
614.616	262
615.095	265
615.574	266
616.053	264
616.532	266
617.011	269
617.491	263
617.97	269
618.449	272
618.928	272
619.408	279
619.887	276
620.367	279
620.846	279
621.326	281
621.805	277
622.285	278
622.764	284
623.244	289
623.724	290
624.203	291
624.683	286
625.163	289
625.643	292
626.123	295
626.602	298
627.082	293
627.562	287
628.042	301
628.522	296
629.002	300
629.482	302
629.963	299
630.443	292
630.923	301
631.403	296
631.883	294
632.364	296
632.844	297
633.324	298
633.805	301
634.285	293
634.766	299
635.246	298
635.727	304
636.207	292
636.688	295
637.168	298
637.649	295
638.13	297
638.611	297
639.091	302
639.572	299
640.053	303
640.534	298
641.015	301
641.496	296
641.977	296
642.458	292
642.939	295
643.42	297
643.901	299
644.382	300
644.863	306
645.345	306
645.826	300
646.307	307
646.788	309
647.27	300
647.751	307
648.233	305
648.714	305
649.196	311
649.677	305
650.159	316
650.64	304
651.122	317
651.603	311
652.085	311
652.567	313
653.049	306
653.53	311
654.012	320
654.494	310
654.976	312
655.458	314
655.94	311
656.422	316
656.904	312
657.386	309
657.868	309
658.35	310
658.833	317
659.315	310
659.797	307
660.279	310
660.762	307
661.244	309
661.726	310
662.209	307
662.691	308
663.174	303
663.656	306
664.139	303
664.621	303
665.104	301
665.587	308
666.069	304
666.552	308
667.035	300
667.517	297
668	304
668.483	313
668.966	306
669.449	298
669.932	300
670.415	314
670.898	310
671.381	304
671.864	299
672.347	307
672.83	306
673.313	315
673.797	308
674.28	315
674.763	313
675.247	312
675.73	314
676.213	312
676.697	320
677.18	321
677.664	322
678.147	324
678.631	321
679.114	329
679.598	325
680.082	320
680.565	328
681.049	325
681.533	321
682.017	330
682.5	328
682.984	331
683.468	329
683.952	329
684.436	321
684.92	325
685.404	331
685.888	329
686.372	333
686.856	336
687.341	331
687.825	328
688.309	335
688.793	333
689.278	332
689.762	328
690.246	335
690.731	330
691.215	338
691.7	322
692.184	324
692.669	328
693.153	335
693.638	328
694.122	325
694.607	326
695.092	330
695.577	331
696.061	326
696.546	325
697.031	322
697.516	327
698.001	334
698.486	326
698.971	331
699.456	326
699.941	327
700.426	330
700.911	332
701.396	320
701.881	322
702.366	327
702.852	326
703.337	327
703.822	329
704.308	320
704.793	327
705.278	327
705.764	329
706.249	327
706.735	326
707.22	329
707.706	327
708.191	329
708.677	331
709.163	333
709.648	331
710.134	338
710.62	332
711.106	333
711.592	328
712.077	336
712.563	328
713.049	329
713.535	335
714.021	333
714.507	329
714.993	329
715.479	335
715.966	326
716.452	325
716.938	332
717.424	322
717.91	330
718.397	324
718.883	326
719.369	322
719.856	324
720.342	323
720.829	316
721.315	320
721.802	315
722.288	323
722.775	310
723.262	311
723.748	324
724.235	322
724.722	320
725.208	308
725.695	317
726.182	316
726.669	315
727.156	313
727.643	308
728.13	311
728.617	308
729.104	305
729.591	303
730.078	314
730.565	306
731.052	313
731.539	312
732.027	312
732.514	301
733.001	301
733.488	300
733.976	303
734.463	305
734.951	301
735.438	307
735.926	300
736.413	310
736.901	305
737.388	304
737.876	307
738.364	301
738.851	302
739.339	297
739.827	307
740.314	295
740.802	299
741.29	303
741.778	298
742.266	302
742.754	298
743.242	304
743.73	295
744.218	298
744.706	292
745.194	300
745.682	299
746.17	302
746.659	305
747.147	296
747.635	297
748.123	296
748.612	294
749.1	286
749.589	297
750.077	296
750.566	288
751.054	294
751.543	292
752.031	286
752.52	282
753.008	282
753.497	278
753.986	279
754.474	285
754.963	288
755.452	286
755.941	280
756.43	275
756.919	279
757.408	276
757.896	274
758.385	285
758.875	273
759.364	271
759.853	263
760.342	263
760.831	271
761.32	272
761.809	268
762.299	263
762.788	263
763.277	271
763.767	266
764.256	260
764.745	256
765.235	265
765.724	259
766.214	261
766.703	256
767.193	258
767.683	258
768.172	257
768.662	254
769.152	254
769.641	262
770.131	253
770.621	246
771.111	247
771.601	247
772.09	252
772.58	247
773.07	241
773.56	254
774.05	243
774.54	244
775.031	241
775.521	243
776.011	243
776.501	242
776.991	238
777.482	243
777.972	238
778.462	233
778.953	244
779.443	231
779.933	235
780.424	234
780.914	232
781.405	236
781.895	234
782.386	232
782.877	231
783.367	224
783.858	229
784.349	226
784.839	219
785.33	226
785.821	227
786.312	230
786.803	223
787.293	225
787.784	225
788.275	217
788.766	217
789.257	223
789.748	213
790.24	216
790.731	214
791.222	217
791.713	217
792.204	212
792.696	214
793.187	211
793.678	212
794.169	208
794.661	213
795.152	214
795.644	204
796.135	213
796.627	211
797.118	201
797.61	206
798.101	202
798.593	204
799.085	202
799.576	202
800.068	196
800.56	193
801.052	197
801.544	190
802.035	190
802.527	192
803.019	194
803.511	189
804.003	192
804.495	187
804.987	187
805.479	184
805.971	184
806.464	190
806.956	181
807.448	179
807.94	181
808.433	180
808.925	182
809.417	180
809.91	183
810.402	177
810.894	180
811.387	184
811.879	177
812.372	172
812.865	178
813.357	165
813.85	170
814.342	168
814.835	175
815.328	178
815.821	170
816.313	172
816.806	177
817.299	173
817.792	172
818.285	166
818.778	179
819.271	176
819.764	169
820.257	170
820.75	176
821.243	170
821.736	170
822.229	173
822.722	167
823.216	174
